8.004
8.024
8.02
8.016
8.012
8.016
8.008
8.02
8.016
8.016
8.032
7.992
8.032
8.04
8.032
8.02
8.012
8.016
8.036
8.036
8.024
8.028
8.044
8.032
8.02
8.028
8.028
8.024
7.996
8.024
8.032
8.032
7.992
8.012
8.032
8.016
8.004
8.024
8.024
8.036
7.988
8.004
8.016
8.012
8
8
8.008
8.032
7.988
7.988
8
8.012
7.996
7.98
7.988
8.004
7.992
7.96
8
7.992
8
7.984
7.976
8.012
8.012
7.988
7.972
7.988
7.98
7.984
7.976
7.976
7.992
7.996
7.956
7.972
7.992
8
8.016
8.068
8.1
8.076
8.076
8.144
8.16
8.152
8.12
8.1
8.088
8.056
8.012
8.024
8.036
8.004
7.988
7.972
8
7.992
7.964
7.932
7.964
7.996
7.972
7.928
8.004
8.004
7.984
7.932
7.892
7.84
7.96
8.232
8.66
9.288
9.884
10.48
10.968
11.064
10.964
10.076
8.78
7.948
7.62
7.56
7.66
7.804
7.912
8.04
8.04
8.024
8.016
8.012
8.004
7.992
8.02
8.02
8.024
8.012
8.02
8.036
8.016
8
8.036
8.036
8.032
8.044
8.064
8.064
8.048
8.044
8.052
8.072
8.08
8.084
8.076
8.124
8.112
8.104
8.112
8.152
8.18
8.16
8.172
8.2
8.24
8.22
8.228
8.28
8.3
8.356
8.36
8.424
8.448
8.48
8.492
8.564
8.62
8.648
8.684
8.728
8.78
8.82
8.816
8.832
8.856
8.832
8.808
8.776
8.72
8.644
8.576
8.508
8.436
8.396
8.348
8.256
8.204
8.188
8.124
8.076
8.064
8.068
8.028
8.016
8.028
8.012
8.012
7.98
7.976
8.02
8.032
8.004
7.96
8.004
8.004
7.98
7.98
8.012
8.012
8.02
7.992
8.016
8.016
8.008
7.98
8.004
8.036
8.024
8.004
8.012
8.036
8.016
7.988
8.016
8.032
8.02
8.012
8.008
7.996
8.008
7.996
7.988
7.992
8.02
8.012
7.996
7.992
8.004
7.98
7.984
8.004
7.996
8.004
7.996
7.988
7.988
8.012
7.968
7.968
8.008
8
7.98
7.972
7.988
7.988
7.988
7.968
8
8.012
7.984
7.968
7.988
7.992
7.972
7.956
7.996
8.012
8.004
7.948
7.944
7.992
8.004
7.984
7.98
8.024
8.012
7.984
7.952
7.992
8.004
8
7.96
7.976
7.988
7.976
7.948
7.996
8.036
8.064
8.056
8.092
8.124
8.164
8.192
8.168
8.16
8.148
8.096
8.044
8.076
8.064
8.04
8.008
8.036
8.024
7.984
7.96
7.996
8.028
8.004
7.964
7.96
8
7.984
7.972
7.988
8
7.972
7.856
7.876
8.116
8.444
9.004
9.6
10.284
10.86
11.048
11.044
10.62
9.392
8.276
7.708
7.544
7.644
7.772
7.86
7.98
8.088
8.072
8.032
8.012
8.056
8.032
8.044
8.028
8.072
8.056
8.056
8.056
8.068
8.092
8.064
8.044
8.084
8.1
8.12
8.084
8.088
8.112
8.104
8.096
8.096
8.132
8.132
8.136
8.132
8.184
8.184
8.176
8.176
8.224
8.228
8.232
8.24
8.276
8.308
8.32
8.324
8.372
8.404
8.444
8.464
8.496
8.544
8.588
8.608
8.652
8.712
8.752
8.768
8.804
8.876
8.892
8.884
8.86
8.892
8.872
8.808
8.744
8.696
8.62
8.532
8.444
8.42
8.376
8.288
8.244
8.176
8.176
8.128
8.084
8.052
8.096
8.06
8.016
8.008
8.064
8.044
8.028
8.012
8.02
8.024
8.036
8.028
8.024
8.048
8.016
8.012
8.056
8.036
8.044
8.02
8.048
8.044
8.032
8.052
8.016
8.052
8.036
8.032
8.004
8.012
8.028
8
8.012
8.032
8.036
8.012
8
8.016
8.02
7.98
7.98
8
8.036
8.012
7.988
8.008
8.024
8.012
7.968
7.956
8
8.012
7.984
7.972
8.008
7.992
7.968
7.952
7.996
7.984
7.968
7.964
7.98
7.964
7.956
7.976
7.996
8
7.972
7.948
7.964
7.992
7.976
7.968
7.972
8.004
7.98
7.944
7.924
7.964
7.968
7.948
7.936
7.96
7.98
7.936
7.92
7.96
7.968
7.944
7.928
7.968
7.964
7.964
7.912
7.916
7.936
7.948
7.94
7.964
8.028
8.032
8.032
8.052
8.116
8.136
8.108
8.084
8.08
8.056
8.02
7.988
7.984
7.968
7.924
7.924
7.94
7.956
7.928
7.908
7.92
7.928
7.92
7.912
7.916
7.952
7.92
7.904
7.868
7.824
7.748
7.772
8.068
8.508
9.216
9.82
10.42
10.912
11
10.848
10.056
8.788
7.948
7.636
7.524
7.56
7.712
7.772
7.892
7.964
7.976
7.932
7.92
7.936
7.936
7.96
7.928
7.936
7.964
7.948
7.932
7.96
7.972
7.952
7.952
7.956
7.968
7.988
7.976
7.968
7.976
8.02
7.996
8.012
8.016
8.028
8.036
8.028
8.028
8.044
8.024
8.068
8.068
8.124
8.12
8.12
8.128
8.18
8.18
8.188
8.228
8.256
8.3
8.288
8.34
8.376
8.44
8.492
8.5
8.548
8.584
8.632
8.652
8.676
8.72
8.716
8.708
8.696
8.688
8.62
8.548
8.472
8.444
8.372
8.308
8.236
8.168
8.152
8.084
8.036
8.016
8.016
7.964
7.948
7.928
7.908
7.884
7.884
7.876
7.888
7.9
7.888
7.876
7.892
7.908
7.872
7.884
7.888
7.908
7.896
7.9
7.888
7.904
7.88
7.872
7.888
7.916
7.884
7.88
7.892
7.916
7.88
7.88
7.9
7.904
7.9
7.876
7.888
7.888
7.892
7.856
7.864
7.86
7.888
7.848
7.884
7.88
7.88
7.86
7.868
7.872
7.884
7.896
7.868
7.876
7.864
7.856
7.844
7.872
7.88
7.892
7.86
7.86
7.868
7.872
7.844
7.86
7.856
7.88
7.864
7.856
7.852
7.884
7.848
7.86
7.864
7.868
7.888
7.86
7.852
7.844
7.852
7.836
7.856
7.896
7.936
7.928
7.96
7.976
7.96
8.036
8.052
8.052
8.008
7.972
7.952
7.924
7.94
7.904
7.9
7.896
7.904
7.876
7.864
7.884
7.892
7.884
7.864
7.88
7.884
7.892
7.88
7.88
7.9
7.876
7.776
7.724
7.852
8.136
8.556
9.216
9.848
10.48
10.92
11.008
10.9
10.044
8.76
7.916
7.628
7.58
7.66
7.764
7.848
7.96
8.016
7.944
7.94
7.944
7.94
7.94
7.936
7.96
7.972
7.96
7.952
7.972
7.988
7.984
7.964
8.004
8.02
8.008
7.98
8.008
8.036
8.036
7.996
8.024
8.056
8.072
8.028
8.052
8.072
8.104
8.088
8.112
8.12
8.148
8.12
8.14
8.156
8.216
8.224
8.232
8.268
8.296
8.328
8.328
8.392
8.44
8.472
8.496
8.568
8.632
8.652
8.664
8.724
8.776
8.796
8.78
8.812
8.796
8.792
8.728
8.636
8.604
8.528
8.456
8.408
8.328
8.288
8.236
8.144
8.112
8.1
8.068
8.008
8.008
8.012
8.004
7.964
7.932
7.976
7.96
7.972
7.928
7.956
7.976
7.96
7.94
7.944
7.984
7.96
7.948
7.944
7.972
7.972
7.932
7.944
7.976
7.992
7.956
7.976
7.976
7.984
7.944
7.944
7.972
7.98
7.952
7.964
7.968
7.996
7.988
7.936
7.96
7.984
7.98
7.964
7.968
7.972
7.964
7.944
7.944
7.948
7.98
7.964
7.952
7.936
7.952
7.936
7.92
7.944
7.948
7.92
7.932
7.932
7.96
7.924
7.928
7.936
7.956
7.928
7.94
7.92
7.952
7.94
7.9
7.896
7.956
7.96
7.932
7.924
7.936
7.932
7.92
7.908
7.916
7.952
7.92
7.928
7.916
7.952
7.932
7.9
7.908
7.928
7.952
7.932
7.952
8.004
8.032
8.036
8.036
8.128
8.132
8.096
8.076
8.044
8.028
7.984
7.976
7.976
7.988
7.972
7.928
7.92
7.924
7.932
7.88
7.904
7.924
7.932
7.896
7.908
7.912
7.932
7.908
7.908
7.86
7.804
7.904
8.16
8.62
9.208
9.804
10.404
10.912
11
10.892
10.072
8.752
7.908
7.58
7.492
7.64
7.788
7.896
7.964
7.992
7.996
7.952
7.956
7.976
7.952
7.968
7.964
7.932
7.972
7.988
7.96
7.964
7.988
8.004
7.96
7.98
7.984
8.008
8.004
8.004
8.004
8.048
8.04
8.008
8
8.06
8.048
8.048
8.06
8.092
8.1
8.076
8.096
8.136
8.14
8.16
8.164
8.208
8.24
8.252
8.248
8.288
8.34
8.368
8.396
8.436
8.524
8.54
8.568
8.588
8.664
8.692
8.72
8.752
8.792
8.804
8.76
8.736
8.732
8.684
8.608
8.552
8.488
8.432
8.332
8.268
8.2
8.176
8.128
8.088
8.032
8.024
8.004
7.968
7.972
7.968
7.968
7.944
7.928
7.952
7.936
7.92
7.924
7.952
7.968
7.948
7.936
7.968
7.964
7.944
7.924
7.936
7.952
7.968
7.936
7.964
7.976
7.936
7.916
7.932
7.948
7.972
7.924
7.936
7.952
7.96
7.908
7.924
7.94
7.944
7.928
7.916
7.944
7.924
7.936
7.916
7.908
7.948
7.936
7.928
7.928
7.944
7.924
7.904
7.912
7.92
7.932
7.916
7.916
7.928
7.92
7.888
7.908
7.912
7.94
7.904
7.908
7.924
7.928
7.888
7.892
7.904
7.9
7.92
7.888
7.904
7.936
7.9
7.884
7.9
7.916
7.912
7.872
7.9
7.912
7.904
7.872
7.876
7.892
7.896
7.888
7.9
7.892
7.896
7.884
7.872
7.868
7.9
7.896
7.876
7.876
7.912
7.896
7.876
7.872
7.88
7.92
7.848
7.864
7.884
7.896
7.888
7.94
7.972
7.996
7.996
8.048
8.084
8.06
8.036
7.98
7.992
8
7.964
7.94
7.932
7.952
7.916
7.86
7.896
7.912
7.896
7.872
7.876
7.888
7.892
7.884
7.856
7.904
7.904
7.86
7.764
7.724
7.88
8.172
8.632
9.304
9.928
10.524
10.896
10.916
10.708
9.716
8.476
7.728
7.528
7.508
7.568
7.664
7.824
7.916
7.912
7.896
7.924
7.932
7.904
7.888
7.908
7.932
7.92
7.908
7.896
7.96
7.932
7.936
7.892
7.96
7.936
7.932
7.92
7.96
7.948
7.948
7.928
7.964
8.012
7.968
7.992
8.012
8.028
8
8.012
8.044
8.076
8.068
8.072
8.088
8.116
8.128
8.136
8.14
8.192
8.228
8.26
8.252
8.328
8.36
8.388
8.408
8.464
8.5
8.536
8.572
8.628
8.668
8.692
8.708
8.716
8.712
8.708
8.664
8.632
8.588
8.504
8.428
8.36
8.304
8.26
8.18
8.112
8.088
8.056
7.992
7.964
7.96
7.948
7.908
7.9
7.892
7.924
7.884
7.88
7.88
7.912
7.884
7.864
7.884
7.896
7.884
7.852
7.852
7.888
7.896
7.9
7.86
7.892
7.876
7.88
7.872
7.888
7.904
7.888
7.868
7.868
7.888
7.868
7.872
7.868
7.896
7.888
7.88
7.876
7.888
7.884
7.86
7.848
7.88
7.888
7.852
7.836
7.864
7.88
7.824
7.824
7.856
7.852
7.848
7.848
7.844
7.848
7.82
7.836
7.836
7.848
7.828
7.828
7.832
7.852
7.82
7.848
7.824
7.836
7.864
7.836
7.808
7.836
7.852
7.804
7.812
7.824
7.844
7.84
7.832
7.848
7.836
7.836
7.82
7.832
7.848
7.864
7.84
7.808
7.84
7.848
7.812
7.812
7.828
7.828
7.832
7.824
7.868
7.9
7.9
7.916
7.968
8.052
8.032
8.004
8.004
7.964
7.936
7.9
7.908
7.912
7.88
7.884
7.848
7.86
7.848
7.816
7.828
7.876
7.872
7.86
7.836
7.86
7.856
7.84
7.824
7.848
7.804
7.704
7.728
8.012
8.428
9.08
9.696
10.34
10.872
10.992
10.924
10.212
8.96
8.004
7.64
7.516
7.576
7.724
7.764
7.888
7.972
7.968
7.924
7.916
7.956
7.948
7.924
7.924
7.944
7.96
7.932
7.912
7.944
7.984
7.98
7.948
7.972
7.996
7.996
7.968
7.976
8.024
8.032
8.008
8.004
8.02
8.064
8.012
8.048
8.092
8.088
8.072
8.076
8.1
8.12
8.112
8.144
8.18
8.212
8.22
8.224
8.264
8.3
8.34
8.348
8.424
8.472
8.476
8.532
8.552
8.624
8.66
8.676
8.716
8.776
8.796
8.788
8.772
8.788
8.744
8.668
8.62
8.572
8.532
8.448
8.364
8.312
8.252
8.196
8.14
8.128
8.108
8.044
8.032
8.008
8.004
8
7.972
7.976
7.984
7.984
7.968
7.936
7.972
7.992
7.96
7.952
7.968
8.012
7.98
7.96
7.984
7.98
8
7.992
8
8
8.016
7.996
7.98
8
8.008
7.996
8
8.024
8.016
7.984
7.96
7.996
8.004
8.02
7.988
7.976
8.028
8
7.988
7.98
8
8.004
8.004
7.992
8.012
8.004
7.98
7.98
7.996
8.024
8
7.984
8
8.028
7.984
7.976
7.996
8.016
8.016
7.992
8
8.024
8
7.976
7.996
8.012
8.024
7.98
7.98
8.008
7.992
7.984
7.968
8.012
8.04
8.02
7.984
8.008
8.016
7.98
7.972
7.996
8.012
8.012
7.988
7.996
8.016
7.992
7.992
7.964
8.012
8.016
8.008
7.984
7.992
7.996
7.98
7.976
8.004
8
8.016
7.976
7.968
8.016
7.976
7.944
7.996
8.032
8.052
8.068
8.096
8.128
8.116
8.152
8.184
8.2
8.176
8.116
8.092
8.096
8.084
8.052
8.028
8.032
8.056
8.004
8.008
8.004
8.028
7.996
7.996
8.008
8.04
8.02
7.992
7.996
8.024
7.996
7.912
7.864
8.024
8.344
8.76
9.36
9.98
10.596
11.012
11.092
10.984
10.136
8.812
7.96
7.68
7.672
7.792
7.872
8.008
8.104
8.136
8.096
8.072
8.096
8.08
8.052
8.068
8.092
8.104
8.08
8.064
8.096
8.12
8.104
8.076
8.12
8.14
8.104
8.096
8.12
8.14
8.128
8.128
8.128
8.192
8.184
8.148
8.152
8.192
8.2
8.168
8.204
8.244
8.244
8.252
8.252
8.288
8.304
8.296
8.336
8.384
8.428
8.424
8.456
8.488
8.552
8.58
8.6
8.66
8.712
8.752
8.752
8.804
8.86
8.872
8.884
8.928
8.96
8.924
8.86
8.82
8.78
8.716
8.644
8.564
8.524
8.476
8.392
8.308
8.284
8.248
8.204
8.148
8.156
8.148
8.12
8.096
8.096
8.108
8.084
8.052
8.068
8.104
8.096
8.08
8.064
8.092
8.092
8.104
8.072
8.096
8.1
8.084
8.088
8.1
8.108
8.088
8.084
8.112
8.116
8.104
8.084
8.088
8.1
8.096
8.088
8.088
8.096
8.096
8.06
8.064
8.096
8.072
8.08
8.064
8.092
8.084
8.068
8.048
8.056
8.076
8.064
8.052
8.072
8.084
8.064
8.048
8.044
8.084
8.064
8.068
8.064
8.068
8.08
8.04
8.048
8.052
8.06
8.06
8.04
8.064
8.08
8.048
8.028
8.056
8.06
8.044
8.06
8.048
8.092
8.06
8.052
8.048
8.06
8.076
8.048
8.052
8.056
8.064
8.024
8.048
8.08
8.072
8.04
8.072
8.072
8.088
8.064
8.044
8.04
8.08
8.084
8.024
8.06
8.08
8.064
8.032
8.056
8.068
8.064
8.072
8.052
8.084
8.084
8.048
8.048
8.076
8.084
8.076
8.068
8.08
8.076
8.064
8.06
8.088
8.1
8.064
8.064
8.072
8.096
8.104
8.112
8.16
8.144
8.196
8.236
8.244
8.288
8.256
8.18
8.156
8.176
8.152
8.112
8.132
8.112
8.104
8.084
8.044
8.068
8.108
8.084
8.072
8.072
8.092
8.072
8.064
8.064
8.1
8.072
7.992
7.936
8.096
8.4
8.844
9.416
10.068
10.668
11.096
11.144
11
10.064
8.728
7.972
7.716
7.696
7.816
7.94
8.048
8.16
8.156
8.136
8.116
8.152
8.144
8.152
8.108
8.136
8.14
8.14
8.124
8.16
8.176
8.144
8.152
8.156
8.18
8.16
8.184
8.168
8.204
8.192
8.176
8.204
8.216
8.212
8.204
8.212
8.256
8.24
8.232
8.24
8.296
8.304
8.292
8.3
8.332
8.352
8.384
8.364
8.416
8.476
8.432
8.472
8.536
8.596
8.608
8.64
8.696
8.736
8.768
8.812
8.836
8.888
8.94
8.928
8.924
8.98
8.968
8.924
8.88
8.852
8.808
8.684
8.604
8.56
8.508
8.424
8.348
8.328
8.296
8.24
8.192
8.156
8.156
8.132
8.116
8.112
8.136
8.108
8.08
8.088
8.084
8.076
8.088
8.06
8.092
8.088
8.064
8.08
8.08
8.104
8.084
8.092
8.104
8.104
8.108
8.108
8.088
8.088
8.08
8.08
8.072
8.08
8.1
8.068
8.076
8.08
8.08
8.072
8.076
8.072
8.076
8.064
8.052
8.044
8.068
8.06
8.04
8.04
8.056
8.072
8.044
8.044
8.04
8.036
8.032
8.024
8.056
8.056
8
8.016
8.04
8.052
8.044
8.044
8.032
8.04
8.02
8.012
8
8.032
8.032
8.004
8.016
8.036
8.008
8
8
8.016
8.02
7.992
8.004
8.024
8.008
8.02
8
8.008
7.988
8
8.004
8.012
8.032
8
8.008
7.988
8.012
7.976
8.024
8.02
8.064
8.068
8.084
8.092
8.16
8.196
8.184
8.132
8.124
8.104
8.08
8.036
8.032
8.06
8.012
7.992
7.996
7.996
7.98
7.972
7.976
8.004
7.964
7.98
7.98
7.976
7.996
7.952
7.964
7.916
7.84
7.82
7.976
8.352
8.964
9.648
10.26
10.848
11.084
11.068
10.484
9.304
8.28
7.78
7.632
7.604
7.728
7.836
7.94
8.032
8.076
8.008
8.028
8.024
8.048
8.02
8.008
8.024
8.04
8.036
8.036
8.016
8.044
8.048
8.044
8.04
8.052
8.064
8.056
8.052
8.068
8.092
8.088
8.084
8.108
8.128
8.112
8.112
8.132
8.16
8.164
8.156
8.144
8.172
8.208
8.196
8.212
8.26
8.3
8.304
8.324
8.34
8.388
8.404
8.44
8.476
8.54
8.548
8.576
8.636
8.676
8.724
8.744
8.796
8.832
8.872
8.856
8.832
8.812
8.756
8.7
8.62
8.572
8.532
8.46
8.364
8.312
8.296
8.208
8.156
8.124
8.136
8.056
8.04
8.028
8.024
8.012
8
7.988
8.024
8.012
7.984
7.96
7.98
8
7.992
7.976
8
7.996
7.996
7.992
7.98
8.016
7.976
8
8.02
7.996
7.996
7.992
7.968
7.996
8.004
8.016
7.988
8.008
8.016
8.012
8
8.004
8.012
7.996
7.996
8.012
7.996
7.992
7.988
7.976
8.004
7.984
7.988
7.992
8
8
7.996
7.988
8
7.984
7.976
8.004
8.012
7.972
7.988
7.968
7.98
8.012
7.98
7.996
8.004
8.004
7.988
7.988
8.012
8.008
7.988
7.992
7.996
8.032
7.992
7.996
7.972
8
8
8.028
8.044
8.08
8.104
8.084
8.108
8.164
8.208
8.196
8.168
8.144
8.128
8.1
8.072
8.072
8.068
8.052
8.032
8.032
8.028
8.032
8.008
7.992
8.032
8.012
8.024
8.016
8.036
8.032
8.012
8.024
7.98
7.892
7.896
8.1
8.452
9.024
9.68
10.292
10.868
11.168
11.16
10.704
9.54
8.436
7.88
7.68
7.732
7.864
7.932
8.052
8.136
8.14
8.104
8.092
8.092
8.104
8.128
8.096
8.108
8.108
8.124
8.116
8.132
8.12
8.16
8.156
8.152
8.156
8.152
8.16
8.168
8.16
8.184
8.184
8.188
8.188
8.196
8.2
8.22
8.2
8.232
8.244
8.248
8.268
8.292
8.324
8.32
8.336
8.352
8.388
8.42
8.428
8.456
8.512
8.508
8.56
8.568
8.636
8.68
8.728
8.772
8.812
8.84
8.872
8.92
8.956
8.968
8.956
8.952
8.904
8.884
8.808
8.732
8.664
8.616
8.532
8.48
8.416
8.372
8.292
8.256
8.216
8.2
8.196
8.164
8.152
8.124
8.136
8.104
8.096
8.116
8.14
8.132
8.132
8.12
8.12
8.12
8.112
8.12
8.124
8.128
8.116
8.104
8.132
8.12
8.124
8.132
8.128
8.128
8.144
8.128
8.14
8.152
8.124
8.124
8.14
8.144
8.124
8.124
8.12
8.144
8.112
8.132
8.128
8.16
8.132
8.108
8.128
8.144
8.128
8.108
8.124
8.156
8.136
8.12
8.116
8.124
8.14
8.1
8.124
8.096
8.144
8.096
8.116
8.1
8.116
8.1
8.1
8.108
8.124
8.108
8.108
8.096
8.116
8.104
8.092
8.104
8.116
8.116
8.084
8.08
8.096
8.112
8.108
8.1
8.112
8.124
8.116
8.108
8.112
8.108
8.128
8.116
8.128
8.14
8.12
8.088
8.108
8.108
8.116
8.128
8.136
8.188
8.184
8.208
8.188
8.288
8.284
8.308
8.288
8.256
8.232
8.18
8.176
8.16
8.192
8.148
8.14
8.132
8.128
8.108
8.108
8.108
8.128
8.088
8.128
8.108
8.128
8.132
8.096
8.104
8.068
7.996
8.036
8.284
8.66
9.244
9.84
10.452
11.008
11.196
11.188
10.584
9.328
8.308
7.864
7.704
7.804
7.928
8.032
8.14
8.2
8.2
8.188
8.184
8.148
8.18
8.196
8.192
8.176
8.192
8.192
8.176
8.164
8.196
8.204
8.212
8.188
8.22
8.236
8.212
8.228
8.208
8.232
8.256
8.268
8.24
8.272
8.28
8.288
8.276
8.284
8.324
8.312
8.332
8.352
8.364
8.38
8.392
8.408
8.448
8.452
8.512
8.528
8.56
8.56
8.624
8.68
8.736
8.756
8.788
8.832
8.868
8.924
8.952
8.98
9.012
9.044
9.044
9.028
9.008
8.952
8.896
8.824
8.756
8.716
8.636
8.568
8.5
8.452
8.404
8.34
8.276
8.276
8.236
8.216
8.224
8.208
8.204
8.18
8.168
8.192
8.192
8.18
8.184
8.176
8.196
8.18
8.18
8.156
8.2
8.184
8.2
8.168
8.208
8.18
8.192
8.172
8.196
8.188
8.204
8.176
8.188
8.204
8.164
8.192
8.176
8.216
8.208
8.196
8.188
8.192
8.172
8.172
8.184
8.184
8.176
8.168
8.184
8.184
8.176
8.16
8.176
8.2
8.172
8.168
8.172
8.148
8.172
8.156
8.152
8.164
8.16
8.136
8.152
8.14
8.156
8.132
8.136
8.14
8.156
8.156
8.14
8.12
8.116
8.144
8.144
8.14
8.144
8.128
8.124
8.136
8.144
8.152
8.132
8.14
8.124
8.16
8.136
8.144
8.132
8.156
8.132
8.152
8.124
8.148
8.152
8.14
8.116
8.16
8.156
8.14
8.132
8.168
8.156
8.144
8.148
8.148
8.144
8.156
8.168
8.148
8.172
8.152
8.148
8.144
8.152
8.148
8.156
8.148
8.136
8.148
8.14
8.136
8.168
8.176
8.196
8.256
8.252
8.26
8.284
8.332
8.344
8.332
8.284
8.244
8.224
8.24
8.216
8.192
8.184
8.176
8.156
8.164
8.14
8.144
8.14
8.136
8.132
8.124
8.136
8.144
8.132
8.168
8.144
8.076
8.008
8.056
8.336
8.684
9.276
9.896
10.524
11.044
11.196
11.192
10.576
9.296
8.312
7.852
7.74
7.82
7.936
8.056
8.172
8.22
8.22
8.212
8.208
8.18
8.196
8.204
8.2
8.188
8.212
8.204
8.208
8.216
8.228
8.204
8.212
8.22
8.24
8.252
8.248
8.252
8.24
8.248
8.276
8.276
8.268
8.284
8.288
8.304
8.3
8.304
8.324
8.316
8.348
8.36
8.376
8.396
8.396
8.444
8.46
8.452
8.484
8.512
8.544
8.6
8.628
8.656
8.708
8.76
8.8
8.844
8.876
8.916
8.936
8.984
8.984
9.036
9.04
9.048
9.004
8.972
8.912
8.868
8.78
8.732
8.648
8.608
8.54
8.468
8.4
8.364
8.312
8.28
8.26
8.224
8.212
8.212
8.192
8.16
8.184
8.168
8.16
8.148
8.168
8.144
8.16
8.16
8.148
8.148
8.152
8.144
8.176
8.176
8.164
8.164
8.14
8.14
8.16
8.156
8.172
8.152
8.152
8.156
8.148
8.136
8.148
8.156
8.148
8.156
8.14
8.136
8.16
8.156
8.12
8.132
8.132
8.132
8.132
8.124
8.128
8.104
8.108
8.108
8.104
8.112
8.112
8.12
8.128
8.1
8.092
8.092
8.1
8.088
8.124
8.1
8.096
8.096
8.092
8.112
8.08
8.06
8.072
8.064
8.072
8.096
8.068
8.06
8.08
8.104
8.048
8.076
8.072
8.088
8.076
8.072
8.052
8.076
8.052
8.072
8.076
8.084
8.072
8.048
8.072
8.076
8.068
8.096
8.08
8.064
8.068
8.072
8.084
8.076
8.092
8.068
8.08
8.08
8.088
8.112
8.136
8.156
8.18
8.208
8.248
8.252
8.236
8.196
8.188
8.148
8.152
8.152
8.116
8.084
8.076
8.068
8.036
8.044
8.064
8.06
8.052
8.06
8.056
8.056
8.032
8.06
8.064
8.06
8.008
7.868
7.872
8.124
8.472
9.14
9.808
10.452
10.992
11.132
11.068
10.428
9.192
8.188
7.808
7.676
7.708
7.804
7.916
8.028
8.124
8.12
8.096
8.1
8.1
8.108
8.084
8.096
8.096
8.084
8.096
8.096
8.108
8.12
8.12
8.104
8.12
8.1
8.128
8.128
8.164
8.132
8.156
8.16
8.144
8.16
8.152
8.168
8.18
8.172
8.204
8.212
8.224
8.244
8.228
8.256
8.26
8.284
8.308
8.32
8.332
8.364
8.4
8.424
8.46
8.5
8.54
8.56
8.612
8.632
8.684
8.74
8.784
8.816
8.852
8.876
8.884
8.908
8.872
8.868
8.8
8.788
8.708
8.632
8.564
8.524
8.444
8.392
8.34
8.292
8.22
8.204
8.156
8.112
8.112
8.104
8.088
8.076
8.072
8.088
8.06
8.064
8.024
8.044
8.048
8.048
8.052
8.04
8.072
8.048
8.06
8.036
8.048
8.072
8.052
8.08
8.096
8.06
8.052
8.072
8.048
8.04
8.072
8.072
8.06
8.064
8.072
8.048
8.052
8.06
8.044
8.068
8.052
8.08
8.06
8.048
8.056
8.04
8.06
8.056
8.048
8.068
8.04
8.056
8.04
8.036
8.044
8.044
8.064
8.04
8.044
8.04
8.044
8.04
8.056
8.044
8.036
8.04
8.04
8.04
8.036
8.032
8.036
8.06
8.052
8.016
8.048
8.056
8.044
8.06
8.06
8.08
8.064
8.068
8.068
8.052
8.032
8.028
8.056
8.08
8.092
8.12
8.144
8.156
8.144
8.188
8.256
8.268
8.252
8.232
8.184
8.156
8.132
8.108
8.132
8.108
8.116
8.096
8.072
8.08
8.056
8.04
8.04
8.072
8.08
8.092
8.08
8.08
8.068
8.092
8.064
8
7.936
8.064
8.368
8.828
9.5
10.128
10.696
11.132
11.236
11.06
10.104
8.8
8.076
7.784
7.764
7.868
7.988
8.068
8.156
8.164
8.144
8.144
8.14
8.156
8.156
8.168
8.18
8.156
8.168
8.172
8.176
8.184
8.188
8.208
8.204
8.188
8.192
8.22
8.224
8.212
8.228
8.236
8.268
8.236
8.248
8.248
8.264
8.264
8.28
8.312
8.32
8.304
8.324
8.336
8.384
8.384
8.396
8.428
8.448
8.48
8.512
8.52
8.544
8.588
8.632
8.684
8.744
8.78
8.824
8.86
8.9
8.928
8.972
9.004
9.024
9.04
9.008
8.992
8.956
8.904
8.836
8.78
8.696
8.648
8.576
8.512
8.448
8.392
8.324
8.296
8.268
8.248
8.232
8.204
8.2
8.192
8.188
8.176
8.168
8.148
8.16
8.152
8.164
8.18
8.156
8.16
8.172
8.164
8.18
8.184
8.176
8.16
8.172
8.18
8.168
8.192
8.176
8.184
8.172
8.176
8.192
8.204
8.196
8.176
8.184
8.192
8.184
8.164
8.18
8.164
8.164
8.18
8.18
8.176
8.18
8.156
8.18
8.168
8.176
8.168
8.176
8.176
8.176
8.16
8.16
8.164
8.152
8.168
8.168
8.164
8.188
8.16
8.152
8.144
8.16
8.16
8.172
8.136
8.16
8.148
8.144
8.148
8.152
8.16
8.144
8.172
8.164
8.164
8.16
8.144
8.148
8.156
8.172
8.164
8.148
8.176
8.16
8.148
8.144
8.168
8.18
8.168
8.172
8.172
8.144
8.164
8.164
8.152
8.18
8.164
8.172
8.152
8.172
8.16
8.14
8.192
8.168
8.172
8.156
8.176
8.176
8.156
8.148
8.156
8.204
8.212
8.24
8.252
8.288
8.28
8.316
8.348
8.348
8.344
8.3
8.248
8.24
8.22
8.216
8.196
8.192
8.204
8.18
8.16
8.152
8.164
8.172
8.144
8.164
8.156
8.172
8.164
8.144
8.152
8.156
8.084
8.004
8.104
8.392
8.772
9.32
9.936
10.576
11.108
11.22
11.192
10.524
9.244
8.248
7.852
7.756
7.864
7.964
8.096
8.204
8.252
8.22
8.18
8.192
8.208
8.204
8.192
8.228
8.208
8.2
8.22
8.208
8.204
8.216
8.188
8.228
8.224
8.244
8.24
8.224
8.236
8.264
8.232
8.272
8.284
8.28
8.276
8.272
8.292
8.296
8.28
8.332
8.316
8.344
8.352
8.356
8.392
8.42
8.436
8.444
8.48
8.5
8.524
8.548
8.604
8.628
8.66
8.712
8.76
8.796
8.848
8.864
8.916
8.944
9.012
9.04
9.048
9.052
9.068
9.008
8.964
8.928
8.86
8.776
8.7
8.644
8.588
8.532
8.432
8.388
8.344
8.32
8.284
8.256
8.228
8.22
8.18
8.176
8.176
8.156
8.172
8.172
8.168
8.168
8.148
8.144
8.14
8.156
8.176
8.18
8.144
8.168
8.18
8.132
8.144
8.188
8.176
8.168
8.18
8.192
8.156
8.156
8.168
8.172
8.176
8.152
8.16
8.164
8.152
8.156
8.124
8.152
8.168
8.168
8.156
8.148
8.144
8.152
8.144
8.136
8.156
8.152
8.144
8.164
8.148
8.132
8.116
8.132
8.12
8.136
8.128
8.124
8.136
8.136
8.116
8.124
8.12
8.132
8.116
8.112
8.1
8.128
8.136
8.1
8.108
8.124
8.104
8.104
8.092
8.108
8.108
8.108
8.108
8.1
8.096
8.116
8.084
8.092
8.088
8.104
8.088
8.1
8.112
8.12
8.088
8.08
8.108
8.104
8.076
8.088
8.12
8.116
8.116
8.104
8.088
8.1
8.096
8.064
8.1
8.104
8.112
8.1
8.068
8.096
8.076
8.056
8.084
8.108
8.112
8.092
8.084
8.108
8.08
8.068
8.064
8.084
8.116
8.084
8.096
8.076
8.068
8.064
8.06
8.092
8.1
8.128
8.164
8.192
8.192
8.212
8.248
8.268
8.264
8.244
8.192
8.18
8.168
8.152
8.12
8.12
8.116
8.104
8.076
8.084
8.064
8.056
8.064
8.072
8.08
8.092
8.076
8.072
8.088
8.064
8.036
7.928
7.968
8.192
8.508
9.084
9.712
10.328
10.912
11.124
11.16
10.668
9.488
8.38
7.864
7.672
7.716
7.832
7.952
8.076
8.164
8.164
8.128
8.096
8.108
8.112
8.12
8.12
8.132
8.14
8.128
8.112
8.128
8.14
8.136
8.14
8.156
8.124
8.088
8.088
8.132
8.132
8.14
8.136
8.148
8.148
8.132
8.1
8.156
8.164
8.164
8.176
8.212
8.22
8.224
8.224
8.244
8.248
8.272
8.308
8.316
8.332
8.356
8.376
8.412
8.444
8.492
8.512
8.54
8.62
8.648
8.692
8.736
8.784
8.82
8.844
8.868
8.892
8.892
8.864
8.816
8.796
8.74
8.68
8.592
8.524
8.488
8.408
8.344
8.276
8.228
8.22
8.152
8.112
8.092
8.064
8.048
8.004
8.016
8.036
8.004
8.008
8.004
8.004
8.004
7.996
7.992
7.996
7.988
7.988
7.972
7.984
8.008
8
7.996
8.004
8.012
8.012
8.008
7.996
7.996
7.988
7.98
7.976
7.988
7.984
7.984
7.96
7.976
7.972
7.964
7.972
8.004
7.98
7.964
7.94
7.96
7.98
7.952
7.96
7.964
7.972
7.964
7.936
7.944
7.972
7.936
7.932
7.952
7.96
7.964
7.928
7.924
7.944
7.92
7.92
7.924
7.948
7.932
7.924
7.924
7.932
7.928
7.888
7.9
7.912
7.928
7.916
7.904
7.9
7.908
7.888
7.888
7.9
7.912
7.904
7.88
7.9
7.892
7.892
7.884
7.864
7.912
7.916
7.904
7.88
7.908
7.892
7.876
7.88
7.884
7.9
7.896
7.884
7.884
7.892
7.88
7.868
7.872
7.912
7.892
7.876
7.88
7.872
7.884
7.852
7.836
7.872
7.884
7.864
7.864
7.868
7.864
7.876
7.856
7.9
7.88
7.884
7.84
7.84
7.86
7.876
7.864
7.892
7.956
7.972
7.964
8.008
8.068
8.052
8.036
8.016
7.988
7.988
7.956
7.9
7.936
7.896
7.896
7.856
7.872
7.884
7.86
7.836
7.852
7.864
7.836
7.852
7.848
7.876
7.868
7.844
7.768
7.688
7.744
7.98
8.372
9.048
9.66
10.28
10.792
10.968
10.944
10.232
8.964
8.04
7.668
7.496
7.528
7.664
7.792
7.896
7.948
7.928
7.94
7.916
7.912
7.9
7.904
7.94
7.892
7.932
7.964
7.94
7.912
7.928
7.936
7.952
7.952
7.956
7.996
7.972
7.98
7.96
7.984
8
8.004
8.012
8.016
8.028
8.036
8.028
8.044
8.08
8.068
8.056
8.096
8.104
8.108
8.116
8.156
8.172
8.208
8.244
8.256
8.308
8.336
8.348
8.376
8.452
8.48
8.504
8.564
8.608
8.672
8.688
8.7
8.752
8.768
8.792
8.792
8.772
8.772
8.696
8.628
8.556
8.5
8.436
8.344
8.292
8.252
8.18
8.136
8.092
8.048
8.032
8.036
7.968
7.98
7.972
7.948
7.916
7.936
7.932
7.944
7.928
7.94
7.94
7.94
7.936
7.924
7.94
7.936
7.94
7.924
7.956
7.956
7.944
7.916
7.94
7.976
7.964
7.92
7.944
7.96
7.948
7.928
7.94
7.956
7.972
7.936
7.924
7.94
7.944
7.932
7.92
7.932
7.936
7.908
7.924
7.932
7.92
7.904
7.908
7.916
7.912
7.932
7.912
7.912
7.912
7.9
7.888
7.892
7.908
7.904
7.908
7.908
7.896
7.904
7.896
7.876
7.9
7.908
7.892
7.896
7.888
7.9
7.912
7.904
7.9
7.888
7.904
7.888
7.9
7.9
7.908
7.884
7.9
7.924
7.912
7.876
7.896
7.896
7.916
7.884
7.872
7.92
7.912
7.908
7.896
7.908
7.892
7.892
7.872
7.912
7.924
7.92
7.9
7.872
7.908
7.908
7.888
7.908
7.928
7.916
7.896
7.884
7.896
7.924
7.904
7.912
7.92
7.924
7.908
7.912
7.908
7.924
7.916
7.904
7.924
7.916
7.908
7.9
7.908
7.904
7.9
7.896
7.924
7.952
7.98
8.004
7.996
8.036
8.072
8.088
8.096
8.104
8.06
8
8
7.976
7.976
7.98
7.956
7.924
7.944
7.936
7.896
7.916
7.944
7.936
7.924
7.908
7.944
7.936
7.92
7.92
7.904
7.796
7.808
8.056
8.416
8.98
9.532
10.156
10.74
10.972
10.972
10.54
9.356
8.244
7.7
7.52
7.564
7.732
7.836
7.932
8
8.02
8.008
7.972
7.976
8
7.984
7.968
7.988
8.012
7.988
8
7.984
7.996
8.012
8.028
8.004
8.028
8.032
8.028
8.02
8.024
8.06
8.04
8.032
8.072
8.088
8.096
8.076
8.092
8.128
8.136
8.128
8.148
8.184
8.192
8.204
8.188
8.204
8.264
8.272
8.284
8.344
8.376
8.38
8.404
8.468
8.508
8.548
8.596
8.648
8.7
8.74
8.768
8.784
8.812
8.848
8.884
8.884
8.868
8.852
8.776
8.732
8.676
8.612
8.512
8.468
8.396
8.36
8.292
8.232
8.184
8.164
8.104
8.084
8.068
8.056
8.032
8.012
7.992
8.016
8.032
8.008
7.996
8.012
7.988
7.988
7.984
8.008
8.008
7.996
7.992
8.008
8.004
8.004
8.004
7.992
8.016
8.032
8.024
8.004
8.032
8.012
8
8
8.016
8.028
8.004
8.016
8.016
8.028
8.004
8.004
8.012
8.016
8.016
7.988
8.004
8
7.992
7.984
7.996
8
8.008
7.98
7.984
7.988
7.984
7.984
7.976
8
7.996
7.984
7.976
7.988
7.988
7.98
7.948
7.98
7.976
8.004
7.976
7.952
7.972
7.972
7.944
7.972
8
7.992
7.98
7.988
7.98
7.988
7.98
7.972
7.96
7.984
7.972
7.964
7.98
7.972
7.964
7.952
7.984
7.968
7.96
7.96
7.956
7.952
7.956
7.952
7.968
7.992
7.988
7.952
7.964
7.984
7.976
7.94
7.956
7.988
7.956
7.948
7.956
7.972
7.988
7.964
7.936
7.968
7.964
7.944
7.94
7.972
7.98
8.012
8.032
8.064
8.072
8.128
8.148
8.148
8.14
8.096
8.068
8.052
8.028
8.032
8.008
7.96
7.98
7.952
7.928
7.936
7.96
7.952
7.948
7.928
7.944
7.944
7.956
7.924
7.936
7.928
7.88
7.768
7.876
8.156
8.56
9.216
9.828
10.468
10.968
11.024
10.888
10.108
8.844
7.944
7.584
7.512
7.624
7.74
7.82
7.94
8.016
7.976
7.964
7.964
7.972
7.96
7.944
7.956
7.964
7.98
7.952
7.976
7.988
8
7.976
7.984
7.992
8.016
7.984
8.008
8.016
8.028
8.044
8.008
8.028
8.028
8.044
8.028
8.052
8.072
8.084
8.08
8.076
8.096
8.116
8.132
8.136
8.184
8.204
8.196
8.208
8.236
8.276
8.312
8.304
8.36
8.432
8.46
8.476
8.536
8.584
8.624
8.644
8.704
8.776
8.792
8.804
8.804
8.812
8.8
8.732
8.68
8.636
8.568
8.492
8.396
8.368
8.3
8.208
8.144
8.104
8.052
8.004
7.984
7.96
7.952
7.924
7.892
7.92
7.912
7.92
7.872
7.864
7.888
7.9
7.892
7.864
7.892
7.876
7.864
7.864
7.884
7.868
7.884
7.876
7.888
7.888
7.88
7.856
7.86
7.888
7.856
7.856
7.88
7.884
7.88
7.856
7.852
7.872
7.88
7.884
7.864
7.888
7.872
7.864
7.852
7.88
7.884
7.876
7.836
7.856
7.876
7.876
7.816
7.824
7.864
7.86
7.832
7.832
7.836
7.844
7.824
7.836
7.84
7.852
7.836
7.832
7.86
7.844
7.824
7.8
7.828
7.84
7.828
7.812
7.816
7.844
7.828
7.812
7.824
7.836
7.832
7.8
7.808
7.832
7.832
7.792
7.8
7.816
7.832
7.824
7.828
7.836
7.856
7.86
7.896
7.936
7.956
8.028
8.004
7.996
7.976
7.928
7.896
7.864
7.872
7.872
7.828
7.816
7.816
7.78
7.796
7.788
7.84
7.824
7.824
7.8
7.8
7.8
7.808
7.78
7.808
7.792
7.704
7.632
7.812
8.124
8.684
9.38
10.008
10.612
10.908
10.912
10.52
9.392
8.248
7.64
7.48
7.468
7.552
7.64
7.72
7.86
7.884
7.852
7.856
7.864
7.868
7.86
7.852
7.86
7.88
7.872
7.836
7.9
7.884
7.884
7.888
7.888
7.888
7.9
7.872
7.912
7.932
7.936
7.92
7.924
7.948
7.956
7.936
7.968
8.008
8.004
8
8.008
8.02
8.044
8.044
8.048
8.108
8.12
8.132
8.128
8.172
8.216
8.248
8.26
8.304
8.368
8.404
8.4
8.472
8.532
8.564
8.592
8.636
8.676
8.692
8.704
8.716
8.76
8.74
8.708
8.612
8.556
8.54
8.46
8.348
8.3
8.26
8.208
8.136
8.072
8.056
8.004
7.952
7.908
7.94
7.916
7.908
7.9
7.908
7.912
7.896
7.864
7.884
7.872
7.896
7.86
7.896
7.904
7.904
7.868
7.88
7.908
7.9
7.904
7.9
7.94
7.892
7.904
7.9
7.912
7.9
7.924
7.916
7.932
7.936
7.9
7.892
7.908
7.912
7.916
7.924
7.9
7.932
7.924
7.908
7.904
7.912
7.924
7.908
7.908
7.896
7.896
7.9
7.88
7.904
7.888
7.876
7.872
7.88
7.912
7.888
7.892
7.892
7.888
7.9
7.884
7.904
7.892
7.884
7.88
7.872
7.88
7.888
7.888
7.872
7.904
7.904
7.904
7.88
7.892
7.872
7.9
7.884
7.9
7.872
7.892
7.876
7.876
7.888
7.88
7.876
7.88
7.9
7.896
7.888
7.876
7.896
7.896
7.88
7.884
7.888
7.908
7.9
7.912
7.944
8.004
7.996
8.008
8.056
8.096
8.076
8.044
8.008
8.016
8.004
7.952
7.968
7.948
7.948
7.896
7.9
7.916
7.876
7.908
7.888
7.908
7.904
7.88
7.884
7.904
7.92
7.896
7.88
7.836
7.76
7.868
8.124
8.552
9.192
9.792
10.408
10.912
11.016
10.9
10.128
8.832
7.964
7.604
7.52
7.612
7.744
7.852
7.948
7.992
7.98
7.972
7.96
7.932
7.956
7.948
7.932
7.936
7.964
7.984
7.984
7.972
7.94
7.976
7.996
7.988
7.972
8.012
8.04
8.016
8.012
8.02
8.028
8.02
8.012
8.036
8.068
8.06
8.068
8.088
8.088
8.104
8.124
8.136
8.168
8.164
8.192
8.196
8.236
8.268
8.26
8.3
8.368
8.384
8.404
8.456
8.504
8.532
8.568
8.628
8.676
8.728
8.76
8.76
8.788
8.828
8.832
8.808
8.8
8.788
8.696
8.636
8.564
8.516
8.424
8.364
8.308
8.252
8.184
8.156
8.1
8.08
8.06
8.016
8.008
7.992
7.988
7.984
7.956
7.96
7.968
7.928
7.948
7.968
7.976
7.976
7.952
7.968
7.948
7.976
7.972
7.96
7.976
7.968
7.98
7.952
7.996
7.976
7.956
7.976
7.996
7.988
7.984
7.972
7.968
7.988
7.972
7.984
7.984
7.98
7.98
7.98
7.968
7.976
7.968
7.948
7.972
8
8
7.968
7.956
7.988
7.98
7.96
7.952
7.992
7.964
7.94
7.956
7.96
7.964
7.952
7.972
7.956
7.972
7.968
7.92
7.956
7.936
7.976
7.952
7.96
7.988
7.952
7.932
7.944
7.952
7.944
7.952
7.956
7.968
7.952
7.94
7.916
7.944
7.96
7.952
7.928
7.96
7.968
7.952
7.92
7.94
7.972
7.952
7.952
7.952
7.952
7.948
7.944
7.94
7.936
7.944
7.948
7.92
7.972
7.948
7.948
7.944
7.944
7.944
7.964
7.94
7.96
7.948
7.952
7.964
7.944
7.964
7.944
7.948
7.944
7.972
7.996
8.048
8.048
8.072
8.108
8.128
8.136
8.136
8.116
8.064
8.024
8.012
8.012
8.02
7.988
7.968
7.96
7.952
7.936
7.924
7.964
7.956
7.936
7.932
7.948
7.94
7.928
7.94
7.956
7.916
7.828
7.856
8.08
8.428
8.968
9.548
10.232
10.8
11.024
11.004
10.548
9.336
8.22
7.672
7.52
7.584
7.732
7.844
7.956
8.024
8.032
7.98
7.972
8
8
7.988
7.976
8.012
8.008
7.988
7.996
8.02
8.028
8
8.016
8.024
8.012
8.028
8
8.004
8.044
8.048
8.032
8.028
8.064
8.072
8.032
8.052
8.092
8.104
8.096
8.092
8.144
8.132
8.152
8.16
8.192
8.228
8.24
8.256
8.268
8.308
8.344
8.348
8.392
8.468
8.504
8.52
8.54
8.608
8.672
8.692
8.736
8.792
8.832
8.832
8.844
8.872
8.848
8.8
8.776
8.716
8.648
8.564
8.508
8.456
8.384
8.312
8.24
8.192
8.168
8.128
8.08
8.028
8.044
8.016
8.012
7.984
8.008
8
7.972
7.964
7.952
7.984
7.952
7.964
7.964
7.996
7.964
7.96
7.972
7.952
7.988
7.972
7.984
7.992
7.984
7.96
7.948
7.984
8
7.968
7.948
7.98
7.984
7.964
7.944
7.96
7.952
7.948
7.94
7.972
7.964
7.956
7.94
7.96
7.932
7.952
7.936
7.96
7.956
7.94
7.924
7.916
7.932
7.944
7.924
7.936
7.96
7.952
7.916
7.928
7.912
7.92
7.908
7.916
7.928
7.936
7.908
7.9
7.9
7.908
7.904
7.884
7.896
7.904
7.912
7.896
7.88
7.896
7.892
7.876
7.888
7.904
7.916
7.896
7.888
7.888
7.904
7.9
7.908
7.896
7.916
7.88
7.88
7.888
7.904
7.912
7.88
7.868
7.912
7.912
7.88
7.852
7.904
7.888
7.88
7.88
7.892
7.916
7.876
7.884
7.888
7.896
7.908
7.872
7.888
7.9
7.88
7.888
7.912
7.964
7.992
7.996
8.02
8.096
8.084
8.088
8.052
8.032
7.984
7.996
7.944
7.964
7.948
7.916
7.896
7.888
7.888
7.9
7.9
7.912
7.904
7.88
7.884
7.876
7.916
7.912
7.912
7.852
7.792
7.744
7.84
8.136
8.648
9.352
9.956
10.552
10.956
11.004
10.748
9.736
8.536
7.816
7.54
7.484
7.592
7.712
7.812
7.904
7.956
7.964
7.952
7.932
7.932
7.96
7.944
7.924
7.928
7.94
7.964
7.96
7.964
7.972
7.98
7.96
7.956
7.984
7.988
8.004
7.984
7.972
8.008
8.04
8.028
8.024
8.028
8.04
8.044
8.048
8.064
8.096
8.072
8.092
8.132
8.144
8.164
8.16
8.188
8.196
8.208
8.232
8.292
8.348
8.364
8.388
8.412
8.496
8.5
8.54
8.576
8.644
8.7
8.72
8.732
8.8
8.808
8.816
8.776
8.812
8.768
8.692
8.616
8.568
8.508
8.428
8.364
8.324
8.256
8.2
8.156
8.116
8.068
8.016
8.012
7.988
7.98
7.98
7.948
7.94
7.972
7.956
7.916
7.936
7.944
7.916
7.948
7.932
7.94
7.944
7.932
7.944
7.94
7.956
7.94
7.956
7.948
7.952
7.96
7.936
7.956
7.976
7.964
7.956
7.944
7.936
7.956
7.94
7.928
7.972
7.968
7.948
7.92
7.94
7.96
7.944
7.928
7.96
7.956
7.944
7.936
7.916
7.932
7.94
7.924
7.928
7.936
7.932
7.932
7.908
7.924
7.932
7.92
7.924
7.932
7.968
7.912
7.924
7.94
7.94
7.908
7.928
7.948
7.944
7.944
7.92
7.924
7.928
7.94
7.948
7.94
7.952
7.94
7.936
7.936
7.944
7.94
7.932
7.96
7.952
7.944
7.92
7.928
7.948
7.944
7.944
7.932
7.956
7.94
7.92
7.932
7.948
7.952
7.952
8.008
8.048
8.064
8.072
8.116
8.136
8.124
8.112
8.072
8.044
8.036
8.044
8
7.992
7.98
7.956
7.928
7.928
7.972
7.976
7.944
7.952
7.96
7.952
7.964
7.976
7.976
7.988
7.948
7.888
7.808
7.94
8.22
8.688
9.356
9.992
10.588
11.024
11.088
10.948
10.064
8.784
7.968
7.684
7.64
7.724
7.824
7.952
8.032
8.072
8.04
8.036
8.04
8.056
8.044
8.02
8.052
8.052
8.06
8.032
8.084
8.06
8.06
8.076
8.08
8.096
8.096
8.1
8.112
8.104
8.092
8.112
8.124
8.144
8.156
8.148
8.164
8.168
8.184
8.172
8.18
8.188
8.228
8.232
8.244
8.288
8.284
8.28
8.328
8.352
8.392
8.412
8.448
8.488
8.532
8.548
8.572
8.624
8.684
8.744
8.748
8.828
8.86
8.884
8.928
8.936
8.944
8.94
8.896
8.864
8.812
8.712
8.648
8.58
8.512
8.476
8.38
8.324
8.3
8.252
8.192
8.132
8.136
8.132
8.1
8.1
8.068
8.06
8.068
8.048
8.052
8.08
8.076
8.052
8.064
8.076
8.088
8.052
8.052
8.064
8.096
8.072
8.072
8.08
8.084
8.068
8.072
8.08
8.088
8.076
8.076
8.084
8.084
8.068
8.06
8.064
8.104
8.088
8.072
8.084
8.08
8.08
8.056
8.068
8.084
8.08
8.056
8.068
8.056
8.064
8.044
8.064
8.048
8.096
8.052
8.04
8.036
8.052
8.068
8.032
8.016
8.072
8.068
8.024
8.04
8.052
8.052
8.028
8.02
8.056
8.068
8.06
8.048
8.028
8.048
8.044
8.036
8.048
8.064
8.048
8.024
8.02
8.044
8.04
8.02
8.04
8.072
8.052
8.04
8.056
8.044
8.036
8.044
8.032
8.064
8.044
8.044
8.048
8.04
8.056
8.044
8.02
8.06
8.076
8.048
8.052
8.024
8.06
8.048
8.048
8.032
8.064
8.056
8.056
8.036
8.052
8.064
8.036
8.052
8.08
8.068
8.068
8.048
8.064
8.052
8.036
8.048
8.076
8.1
8.108
8.136
8.152
8.184
8.204
8.248
8.256
8.244
8.232
8.144
8.156
8.148
8.124
8.108
8.08
8.116
8.084
8.048
8.056
8.056
8.072
8.056
8.076
8.072
8.076
8.084
8.056
8.064
8.072
8.048
7.936
7.944
8.168
8.496
9.024
9.604
10.28
10.872
11.132
11.164
10.748
9.616
8.416
7.864
7.656
7.732
7.84
7.944
8.06
8.176
8.136
8.12
8.116
8.12
8.104
8.104
8.124
8.128
8.12
8.104
8.104
8.128
8.128
8.12
8.128
8.152
8.152
8.136
8.136
8.136
8.164
8.164
8.156
8.164
8.18
8.18
8.188
8.188
8.216
8.228
8.224
8.232
8.268
8.296
8.276
8.28
8.32
8.348
8.316
8.372
8.408
8.448
8.432
8.48
8.52
8.552
8.6
8.628
8.692
8.744
8.764
8.82
8.836
8.9
8.956
8.956
8.98
8.996
8.996
8.96
8.884
8.872
8.824
8.716
8.64
8.596
8.516
8.44
8.404
8.352
8.292
8.256
8.204
8.18
8.16
8.12
8.064
8.096
8.136
8.116
8.088
8.076
8.104
8.096
8.056
8.096
8.1
8.116
8.084
8.096
8.076
8.1
8.068
8.076
8.096
8.124
8.104
8.1
8.096
8.104
8.108
8.08
8.1
8.088
8.12
8.092
8.088
8.116
8.108
8.084
8.088
8.096
8.108
8.092
8.084
8.1
8.084
8.068
8.08
8.072
8.104
8.084
8.06
8.072
8.064
8.084
8.056
8.06
8.092
8.092
8.072
8.048
8.084
8.084
8.064
8.044
8.068
8.064
8.048
8.048
8.076
8.076
8.052
8.048
8.072
8.076
8.056
8.056
8.04
8.072
8.072
8.044
8.048
8.06
8.068
8.032
8.056
8.056
8.056
8.044
8.052
8.076
8.048
8.044
8.048
8.052
8.044
8.06
8.048
8.056
8.056
8.056
8.06
8.056
8.068
8.076
8.048
8.052
8.076
8.056
8.048
8.056
8.056
8.06
8.064
8.068
8.06
8.06
8.056
8.04
8.064
8.064
8.06
8.056
8.044
8.1
8.064
8.036
8.052
8.056
8.056
8.068
8.084
8.088
8.068
8.052
8.072
8.06
8.068
8.064
8.104
8.1
8.196
8.152
8.192
8.224
8.272
8.256
8.24
8.212
8.192
8.172
8.12
8.12
8.152
8.112
8.088
8.08
8.076
8.076
8.068
8.068
8.056
8.092
8.06
8.076
8.08
8.104
8.072
8.04
8.012
7.948
8.036
8.316
8.744
9.368
9.936
10.556
11.084
11.164
11.08
10.284
8.988
8.104
7.756
7.672
7.776
7.9
8.036
8.12
8.16
8.14
8.14
8.116
8.096
8.104
8.136
8.136
8.132
8.14
8.14
8.144
8.116
8.128
8.132
8.18
8.152
8.156
8.176
8.152
8.156
8.176
8.192
8.176
8.192
8.2
8.192
8.22
8.208
8.2
8.22
8.268
8.244
8.276
8.272
8.312
8.316
8.316
8.332
8.376
8.38
8.436
8.44
8.464
8.516
8.552
8.58
8.616
8.676
8.708
8.752
8.784
8.848
8.88
8.916
8.948
9
9.012
9.004
8.988
8.968
8.908
8.832
8.764
8.724
8.656
8.6
8.5
8.448
8.416
8.332
8.292
8.264
8.232
8.192
8.148
8.136
8.148
8.112
8.116
8.1
8.108
8.1
8.096
8.072
8.104
8.08
8.084
8.08
8.104
8.116
8.1
8.08
8.112
8.108
8.088
8.092
8.12
8.1
8.1
8.096
8.092
8.092
8.08
8.072
8.08
8.088
8.104
8.06
8.072
8.084
8.084
8.068
8.084
8.084
8.096
8.092
8.076
8.052
8.088
8.052
8.04
8.052
8.064
8.052
8.052
8.052
8.072
8.032
8.044
8.044
8.056
8.032
8.04
8.04
8.048
8.032
8.012
8.024
8.052
8.04
8.052
8.012
8.036
8.024
8.012
7.992
8.032
8.052
7.984
7.984
8.004
8.012
8.008
8.004
8.004
8.04
8.016
7.988
8
8.004
7.996
8.004
8.004
8.016
8.024
7.98
7.996
8
8
7.972
7.996
8.016
8.016
7.98
7.984
7.992
8.016
7.964
7.972
8.004
8.008
7.976
7.976
7.968
8.008
7.984
7.956
7.992
7.988
8
7.98
7.956
7.984
8
7.968
7.992
7.992
7.952
7.98
7.968
8.008
8.048
8.06
8.08
8.084
8.176
8.188
8.184
8.148
8.128
8.084
8.072
8.016
8.028
8.028
7.976
7.972
7.968
7.972
7.968
7.972
7.972
7.992
7.956
7.952
7.964
7.988
7.972
7.988
7.936
7.9
7.804
7.88
8.148
8.588
9.28
9.904
10.532
10.996
11.068
10.912
10.048
8.784
7.964
7.656
7.556
7.62
7.768
7.876
7.972
8.016
8.02
7.992
7.992
8.004
8.004
7.984
7.996
8
7.992
8.012
8.012
8.024
8.024
8.008
7.988
8.008
8.044
8.048
8.028
8.056
8.076
8.06
8.056
8.044
8.1
8.096
8.064
8.112
8.108
8.104
8.116
8.116
8.132
8.156
8.168
8.172
8.212
8.204
8.248
8.252
8.268
8.324
8.364
8.372
8.416
8.48
8.48
8.54
8.564
8.64
8.672
8.692
8.74
8.8
8.824
8.84
8.856
8.892
8.856
8.84
8.788
8.724
8.68
8.604
8.508
8.444
8.392
8.324
8.272
8.216
8.184
8.12
8.068
8.052
8.048
8.04
8
7.996
7.996
8
7.988
7.968
7.984
8
7.976
7.988
7.984
8.004
7.98
7.956
7.988
8.012
8.016
7.952
7.996
7.992
8.004
7.98
7.988
7.984
8.02
7.988
7.984
8.016
7.996
8
7.976
7.984
8
7.976
7.956
7.98
7.976
7.976
7.96
7.956
7.996
7.98
7.952
7.964
7.968
7.952
7.924
7.952
7.952
7.972
7.94
7.952
7.94
7.932
7.94
7.936
7.932
7.976
7.948
7.936
7.924
7.94
7.94
7.924
7.932
7.952
7.952
7.924
7.948
7.944
7.956
7.916
7.944
7.94
7.952
7.952
7.928
7.944
7.952
7.944
7.928
7.944
7.956
7.964
7.92
7.94
7.932
7.928
7.944
7.936
7.968
7.94
7.936
7.932
7.932
7.936
7.936
7.936
7.964
7.96
7.944
7.948
7.94
7.928
7.932
7.936
7.956
7.984
8.008
8.008
8.044
8.076
8.088
8.12
8.152
8.148
8.108
8.064
8.048
8.048
8.012
8.004
7.976
7.984
7.976
7.952
7.944
7.96
7.968
7.952
7.944
7.96
7.968
7.968
7.928
7.964
7.984
7.912
7.828
7.856
8.068
8.42
8.968
9.648
10.284
10.844
11.076
11.12
10.648
9.468
8.308
7.796
7.624
7.66
7.764
7.88
8.012
8.1
8.064
8.04
8.048
8.052
8.036
8.048
8.06
8.068
8.064
8.048
8.044
8.072
8.064
8.064
8.084
8.096
8.096
8.084
8.08
8.12
8.1
8.116
8.12
8.128
8.156
8.136
8.132
8.152
8.172
8.18
8.168
8.192
8.204
8.228
8.224
8.244
8.264
8.304
8.28
8.324
8.376
8.412
8.404
8.44
8.484
8.512
8.56
8.628
8.652
8.704
8.744
8.78
8.82
8.884
8.932
8.924
8.96
8.972
8.98
8.916
8.876
8.816
8.796
8.692
8.632
8.58
8.512
8.436
8.352
8.32
8.268
8.24
8.184
8.16
8.16
8.132
8.096
8.104
8.132
8.108
8.08
8.1
8.104
8.092
8.048
8.072
8.1
8.088
8.088
8.08
8.108
8.124
8.08
8.092
8.104
8.12
8.104
8.096
8.116
8.116
8.116
8.088
8.096
8.124
8.112
8.116
8.104
8.12
8.116
8.096
8.108
8.104
8.124
8.092
8.128
8.116
8.112
8.1
8.088
8.104
8.128
8.116
8.076
8.092
8.08
8.088
8.056
8.096
8.104
8.088
8.096
8.116
8.112
8.1
8.076
8.076
8.1
8.116
8.076
8.084
8.084
8.096
8.072
8.068
8.08
8.096
8.092
8.076
8.068
8.084
8.104
8.076
8.088
8.112
8.112
8.088
8.08
8.08
8.096
8.072
8.084
8.116
8.104
8.092
8.088
8.096
8.112
8.072
8.088
8.124
8.108
8.108
8.084
8.072
8.084
8.104
8.064
8.104
8.124
8.124
8.08
8.056
8.104
8.108
8.096
8.156
8.184
8.212
8.224
8.232
8.292
8.292
8.252
8.232
8.228
8.204
8.18
8.152
8.16
8.16
8.136
8.096
8.104
8.096
8.104
8.076
8.084
8.108
8.108
8.06
8.084
8.12
8.1
8.084
8.032
7.956
8.032
8.256
8.636
9.248
9.888
10.512
11.008
11.196
11.188
10.516
9.216
8.236
7.824
7.692
7.772
7.88
8.016
8.14
8.172
8.168
8.172
8.152
8.136
8.124
8.148
8.144
8.152
8.14
8.172
8.176
8.18
8.16
8.168
8.168
8.152
8.156
8.164
8.176
8.172
8.18
8.196
8.208
8.22
8.212
8.22
8.232
8.244
8.248
8.22
8.26
8.272
8.272
8.288
8.324
8.34
8.336
8.336
8.356
8.412
8.432
8.464
8.504
8.536
8.572
8.596
8.636
8.684
8.728
8.748
8.812
8.844
8.896
8.904
8.968
8.996
9.052
9.028
9.032
9.012
8.964
8.884
8.804
8.728
8.676
8.628
8.532
8.48
8.428
8.38
8.312
8.26
8.236
8.228
8.192
8.16
8.156
8.156
8.12
8.12
8.124
8.128
8.132
8.108
8.1
8.116
8.132
8.132
8.116
8.128
8.148
8.14
8.128
8.132
8.148
8.116
8.148
8.132
8.152
8.12
8.148
8.152
8.148
8.124
8.116
8.136
8.144
8.156
8.136
8.14
8.144
8.112
8.108
8.112
8.144
8.124
8.116
8.108
8.124
8.128
8.104
8.112
8.136
8.136
8.104
8.104
8.12
8.084
8.112
8.08
8.096
8.112
8.104
8.092
8.084
8.108
8.088
8.06
8.096
8.108
8.104
8.088
8.088
8.068
8.068
8.056
8.068
8.092
8.096
8.084
8.084
8.084
8.092
8.06
8.064
8.096
8.104
8.084
8.08
8.072
8.088
8.092
8.064
8.08
8.088
8.104
8.068
8.064
8.084
8.096
8.072
8.08
8.096
8.084
8.06
8.08
8.096
8.088
8.056
8.052
8.064
8.096
8.1
8.104
8.148
8.188
8.2
8.208
8.264
8.268
8.272
8.18
8.184
8.168
8.136
8.116
8.108
8.132
8.096
8.064
8.06
8.06
8.072
8.044
8.08
8.08
8.084
8.072
8.048
8.04
8.08
8.068
7.988
7.892
7.96
8.216
8.528
9.14
9.808
10.4
10.968
11.152
11.148
10.56
9.296
8.216
7.8
7.624
7.664
7.808
7.944
8.096
8.14
8.104
8.108
8.096
8.088
8.076
8.096
8.116
8.104
8.088
8.096
8.136
8.12
8.116
8.136
8.132
8.14
8.132
8.096
8.124
8.152
8.136
8.136
8.168
8.192
8.16
8.16
8.188
8.2
8.212
8.188
8.22
8.236
8.244
8.232
8.256
8.3
8.312
8.328
8.332
8.392
8.408
8.376
8.436
8.476
8.532
8.556
8.588
8.616
8.684
8.708
8.74
8.804
8.852
8.88
8.916
8.968
8.984
8.96
8.936
8.932
8.892
8.852
8.756
8.712
8.656
8.548
8.484
8.408
8.388
8.296
8.264
8.204
8.188
8.168
8.112
8.08
8.08
8.084
8.08
8.064
8.072
8.076
8.084
8.032
8.04
8.08
8.08
8.064
8.064
8.072
8.092
8.048
8.032
8.072
8.06
8.036
8.06
8.052
8.072
8.04
8.044
8.06
8.068
8.072
8.028
8.056
8.06
8.056
8.024
8.028
8.068
8.056
8.044
8.032
8.044
8.032
7.988
8.016
8.04
8.052
8.02
7.984
8.04
8.032
8.028
7.992
8.016
8.02
8.016
7.984
8.008
8.024
8.008
7.98
8
8.02
8.024
8
7.976
7.988
7.996
7.976
7.972
8.024
8.016
7.996
7.964
7.992
8.004
7.992
7.956
7.992
8.012
8.012
7.976
7.98
7.996
8
7.972
7.96
7.996
8
7.968
7.952
7.988
7.988
7.976
7.96
8
8.004
7.96
7.968
7.996
8.004
7.98
7.928
7.964
8.012
8.004
7.988
8.032
8.096
8.076
8.092
8.156
8.196
8.184
8.128
8.096
8.096
8.076
8.04
8.004
8.024
8.012
8.004
7.948
7.956
7.992
7.984
7.944
7.964
8.012
7.996
7.972
7.964
7.976
7.996
7.952
7.884
7.832
7.932
8.184
8.64
9.384
10
10.576
11.052
11.1
10.952
10
8.724
7.952
7.712
7.616
7.652
7.82
7.92
8.008
8.056
8.056
8.056
8.044
8.024
8.024
8.044
8.06
8.016
8.032
8.056
8.064
8.064
8.028
8.064
8.076
8.068
8.068
8.072
8.092
8.092
8.092
8.084
8.136
8.12
8.104
8.116
8.156
8.16
8.144
8.164
8.188
8.204
8.184
8.204
8.24
8.268
8.252
8.276
8.34
8.328
8.36
8.38
8.416
8.472
8.484
8.516
8.588
8.636
8.656
8.7
8.724
8.796
8.828
8.864
8.896
8.92
8.932
8.9
8.888
8.884
8.856
8.792
8.688
8.648
8.576
8.492
8.42
8.392
8.328
8.284
8.208
8.188
8.192
8.14
8.112
8.096
8.108
8.112
8.096
8.068
8.092
8.104
8.064
8.056
8.104
8.084
8.096
8.064
8.112
8.1
8.096
8.088
8.084
8.096
8.116
8.104
8.104
8.1
8.12
8.08
8.096
8.108
8.116
8.088
8.096
8.116
8.128
8.096
8.088
8.112
8.108
8.104
8.076
8.112
8.108
8.088
8.052
8.092
8.1
8.088
8.088
8.08
8.084
8.096
8.064
8.064
8.108
8.108
8.076
8.064
8.084
8.068
8.076
8.056
8.104
8.108
8.08
8.076
8.096
8.084
8.052
8.072
8.068
8.096
8.092
8.072
8.06
8.08
8.08
8.072
8.068
8.076
8.112
8.072
8.06
8.1
8.084
8.056
8.064
8.092
8.088
8.076
8.072
8.076
8.088
8.068
8.052
8.08
8.1
8.112
8.068
8.084
8.1
8.104
8.072
8.08
8.076
8.08
8.068
8.08
8.112
8.132
8.18
8.168
8.208
8.26
8.28
8.264
8.256
8.244
8.196
8.16
8.168
8.18
8.156
8.128
8.132
8.116
8.092
8.092
8.06
8.108
8.108
8.08
8.084
8.104
8.108
8.084
8.1
8.096
8.076
7.968
7.956
8.232
8.6
9.164
9.788
10.408
11.012
11.22
11.192
10.672
9.456
8.332
7.844
7.68
7.796
7.928
7.976
8.124
8.196
8.164
8.148
8.136
8.172
8.164
8.152
8.14
8.152
8.156
8.16
8.168
8.164
8.192
8.188
8.164
8.164
8.172
8.192
8.164
8.216
8.224
8.228
8.212
8.208
8.216
8.24
8.24
8.232
8.284
8.284
8.288
8.28
8.304
8.316
8.332
8.324
8.348
8.392
8.388
8.4
8.428
8.456
8.488
8.528
8.556
8.612
8.652
8.64
8.708
8.752
8.816
8.84
8.86
8.928
8.968
8.988
8.992
9.028
9.004
8.992
8.916
8.9
8.844
8.752
8.672
8.596
8.564
8.496
8.424
8.376
8.34
8.28
8.22
8.212
8.204
8.196
8.16
8.152
8.168
8.168
8.148
8.12
8.12
8.148
8.144
8.128
8.152
8.168
8.148
8.144
8.132
8.16
8.152
8.148
8.152
8.148
8.168
8.152
8.132
8.156
8.172
8.16
8.152
8.168
8.168
8.14
8.148
8.136
8.156
8.172
8.14
8.14
8.152
8.144
8.124
8.144
8.16
8.164
8.14
8.136
8.172
8.148
8.148
8.1
8.132
8.156
8.128
8.128
8.156
8.156
8.14
8.128
8.136
8.132
8.136
8.14
8.152
8.144
8.128
8.136
8.14
8.148
8.152
8.128
8.136
8.152
8.14
8.112
8.112
8.128
8.132
8.124
8.12
8.152
8.156
8.136
8.12
8.144
8.152
8.12
8.116
8.132
8.14
8.144
8.12
8.128
8.14
8.16
8.136
8.128
8.148
8.164
8.124
8.12
8.136
8.14
8.156
8.12
8.144
8.132
8.12
8.116
8.156
8.208
8.232
8.224
8.224
8.28
8.32
8.312
8.304
8.3
8.272
8.22
8.168
8.192
8.2
8.14
8.136
8.156
8.14
8.132
8.124
8.136
8.124
8.12
8.132
8.12
8.132
8.132
8.132
8.124
8.112
8.032
7.992
8.192
8.524
9.04
9.632
10.252
10.868
11.216
11.252
10.936
9.892
8.636
7.976
7.732
7.744
7.88
7.952
8.096
8.192
8.236
8.196
8.16
8.164
8.184
8.18
8.168
8.192
8.184
8.2
8.18
8.192
8.2
8.192
8.2
8.212
8.216
8.216
8.204
8.216
8.252
8.252
8.232
8.236
8.252
8.28
8.28
8.264
8.276
8.3
8.304
8.296
8.34
8.36
8.352
8.36
8.38
8.408
8.428
8.432
8.452
8.516
8.54
8.548
8.576
8.624
8.692
8.72
8.736
8.816
8.868
8.892
8.9
8.98
9.008
9.056
9.044
9.092
9.096
9.068
9.008
8.944
8.904
8.852
8.768
8.676
8.648
8.588
8.5
8.432
8.388
8.344
8.292
8.244
8.256
8.232
8.22
8.204
8.196
8.2
8.208
8.172
8.192
8.212
8.2
8.152
8.172
8.192
8.184
8.184
8.164
8.208
8.212
8.184
8.184
8.184
8.22
8.192
8.196
8.208
8.22
8.196
8.168
8.2
8.204
8.188
8.176
8.184
8.212
8.176
8.168
8.192
8.164
8.188
8.192
8.18
8.188
8.192
8.172
8.156
8.176
8.176
8.168
8.144
8.18
8.168
8.148
8.148
8.172
8.168
8.176
8.172
8.16
8.176
8.156
8.152
8.136
8.164
8.172
8.124
8.136
8.144
8.144
8.128
8.112
8.16
8.148
8.152
8.152
8.148
8.144
8.144
8.132
8.14
8.14
8.12
8.136
8.148
8.144
8.156
8.132
8.12
8.144
8.132
8.156
8.148
8.156
8.152
8.128
8.124
8.128
8.144
8.144
8.132
8.144
8.152
8.144
8.124
8.124
8.136
8.144
8.132
8.116
8.14
8.14
8.116
8.116
8.144
8.136
8.14
8.116
8.144
8.132
8.116
8.104
8.136
8.144
8.148
8.128
8.12
8.132
8.128
8.116
8.116
8.148
8.132
8.124
8.12
8.152
8.144
8.116
8.092
8.152
8.148
8.156
8.152
8.212
8.228
8.22
8.252
8.308
8.36
8.328
8.268
8.228
8.232
8.208
8.164
8.184
8.168
8.164
8.104
8.124
8.112
8.116
8.096
8.112
8.144
8.132
8.116
8.1
8.132
8.112
8.116
8.08
7.988
8.032
8.204
8.54
9.116
9.784
10.38
10.944
11.176
11.216
10.744
9.572
8.448
7.916
7.72
7.728
7.872
7.984
8.104
8.196
8.172
8.184
8.164
8.14
8.144
8.168
8.176
8.164
8.14
8.156
8.172
8.192
8.168
8.168
8.196
8.2
8.16
8.176
8.2
8.216
8.192
8.208
8.224
8.244
8.224
8.196
8.248
8.24
8.256
8.252
8.272
8.288
8.276
8.276
8.284
8.316
8.348
8.352
8.376
8.412
8.428
8.432
8.472
8.508
8.56
8.564
8.616
8.684
8.732
8.712
8.764
8.832
8.88
8.908
8.944
8.98
9
9.028
9.012
9.008
8.992
8.936
8.88
8.808
8.764
8.684
8.58
8.532
8.484
8.416
8.336
8.292
8.276
8.236
8.192
8.164
8.164
8.18
8.128
8.128
8.132
8.144
8.128
8.092
8.108
8.1
8.124
8.096
8.112
8.108
8.128
8.104
8.104
8.132
8.116
8.104
8.108
8.136
8.116
8.124
8.088
8.112
8.124
8.116
8.104
8.108
8.116
8.108
8.072
8.084
8.1
8.116
8.08
8.08
8.088
8.064
8.044
8.06
8.08
8.076
8.056
8.052
8.068
8.044
8.028
8.008
8.06
8.076
8.064
8.04
8.056
8.056
8.04
8.02
8.02
8.048
8.044
8.04
8.04
8.028
8.032
8.024
8.02
8.04
8.044
8.016
8.032
8.048
8.044
7.988
8
8.028
8.048
8.032
8.012
8.02
8.024
8.024
8
8
8.032
8.04
8.02
8.032
8.012
8.044
7.98
7.992
8.032
8.008
8.028
8.02
8.024
8.004
7.992
7.988
8.028
8.028
8.024
7.996
8.008
8.012
7.988
8.016
8.036
8.076
8.12
8.104
8.128
8.2
8.208
8.168
8.176
8.156
8.12
8.092
8.056
8.076
8.06
8.032
8.008
8.008
8.028
7.988
8.016
8.004
8.016
7.988
7.972
8.016
8.02
7.996
7.996
7.964
7.948
7.84
7.888
8.156
8.612
9.288
9.9
10.516
11.04
11.12
10.976
10.144
8.9
8.028
7.72
7.584
7.684
7.8
7.888
7.988
8.072
8.068
8.048
8.032
8.04
8.052
8.044
8.048
8.056
8.084
8.08
8.076
8.056
8.088
8.112
8.076
8.048
8.092
8.108
8.096
8.076
8.112
8.132
8.112
8.116
8.14
8.156
8.14
8.156
8.168
8.172
8.18
8.172
8.192
8.228
8.24
8.244
8.248
8.284
8.316
8.324
8.34
8.408
8.424
8.452
8.488
8.52
8.56
8.588
8.64
8.712
8.74
8.788
8.82
8.844
8.896
8.92
8.916
8.952
8.968
8.924
8.86
8.776
8.748
8.68
8.616
8.508
8.504
8.432
8.34
8.268
8.252
8.22
8.188
8.136
8.144
8.148
8.116
8.076
8.068
8.108
8.052
8.064
8.052
8.088
8.1
8.064
8.028
8.104
8.08
8.064
8.076
8.1
8.104
8.096
8.06
8.1
8.096
8.116
8.064
8.096
8.112
8.088
8.06
8.084
8.088
8.1
8.076
8.076
8.112
8.108
8.076
8.052
8.092
8.104
8.076
8.06
8.096
8.092
8.076
8.056
8.068
8.076
8.064
8.036
8.068
8.08
8.064
8.02
8.06
8.08
8.072
8.052
8.036
8.08
8.072
8.02
8.028
8.06
8.06
8.056
8.048
8.052
8.072
8.048
8.028
8.064
8.064
8.056
8.04
8.068
8.068
8.036
8.036
8.04
8.072
8.056
8.04
8.028
8.072
8.064
8.044
8.024
8.064
8.072
8.06
8.036
8.064
8.064
8.052
8.012
8.044
8.044
8.056
8.04
8.052
8.052
8.048
8.036
8.08
8.148
8.164
8.14
8.156
8.252
8.26
8.224
8.192
8.208
8.172
8.144
8.096
8.14
8.136
8.084
8.056
8.072
8.064
8.04
8.032
8.04
8.056
8.048
8.024
8.044
8.076
8.064
8.04
8.016
7.992
7.928
7.988
8.24
8.704
9.308
9.896
10.524
11.064
11.184
11.092
10.288
9.044
8.136
7.74
7.644
7.76
7.908
8
8.076
8.132
8.14
8.104
8.092
8.084
8.108
8.132
8.096
8.068
8.128
8.14
8.124
8.088
8.132
8.148
8.12
8.12
8.136
8.18
8.136
8.144
8.14
8.176
8.156
8.112
8.168
8.2
8.22
8.192
8.204
8.26
8.256
8.236
8.244
8.288
8.312
8.316
8.292
8.332
8.38
8.396
8.38
8.436
8.492
8.524
8.524
8.576
8.652
8.664
8.688
8.74
8.828
8.852
8.872
8.892
8.98
9
9.012
8.976
9.024
8.992
8.924
8.824
8.804
8.744
8.676
8.568
8.52
8.496
8.408
8.336
8.28
8.272
8.216
8.184
8.172
8.204
8.164
8.124
8.104
8.144
8.132
8.104
8.108
8.144
8.128
8.108
8.108
8.132
8.144
8.116
8.096
8.136
8.148
8.14
8.104
8.104
8.16
8.132
8.108
8.096
8.148
8.136
8.108
8.12
8.144
8.136
8.112
8.104
8.136
8.14
8.128
8.1
8.112
8.136
8.128
8.088
8.108
8.156
8.128
8.076
8.092
8.128
8.112
8.088
8.092
8.112
8.108
8.08
8.064
8.112
8.112
8.08
8.076
8.104
8.104
8.084
8.052
8.076
8.108
8.08
8.06
8.092
8.116
8.112
8.036
8.072
8.108
8.108
8.072
8.06
8.112
8.084
8.068
8.052
8.076
8.088
8.08
8.048
8.096
8.112
8.072
8.048
8.072
8.096
8.088
8.072
8.064
8.112
8.108
8.048
8.072
8.088
8.1
8.076
8.068
8.104
8.084
8.064
8.056
8.12
8.168
8.164
8.156
8.22
8.264
8.292
8.26
8.26
8.236
8.164
8.152
8.128
8.188
8.156
8.112
8.084
8.132
8.096
8.06
8.072
8.112
8.088
8.072
8.048
8.112
8.108
8.088
8.072
8.096
8.024
7.928
7.98
8.276
8.696
9.304
9.884
10.512
11.072
11.18
11.1
10.388
9.128
8.16
7.752
7.624
7.764
7.892
7.956
8.072
8.18
8.136
8.124
8.092
8.104
8.124
8.108
8.076
8.104
8.144
8.148
8.092
8.128
8.184
8.168
8.104
8.128
8.172
8.172
8.156
8.144
8.192
8.188
8.172
8.16
8.2
8.236
8.216
8.192
8.232
8.276
8.264
8.236
8.252
8.312
8.316
8.3
8.32
8.368
8.388
8.356
8.396
8.46
8.512
8.484
8.528
8.6
8.64
8.656
8.672
8.776
8.832
8.84
8.86
8.92
8.984
8.988
8.944
8.98
9.048
8.996
8.916
8.872
8.832
8.744
8.636
8.564
8.56
8.484
8.388
8.32
8.3
8.26
8.2
8.168
8.184
8.18
8.168
8.116
8.12
8.14
8.112
8.056
8.072
8.132
8.108
8.084
8.064
8.12
8.104
8.06
8.072
8.104
8.12
8.096
8.08
8.108
8.14
8.096
8.08
8.096
8.132
8.072
8.064
8.084
8.108
8.096
8.088
8.084
8.12
8.108
8.076
8.044
8.12
8.104
8.036
8.052
8.1
8.108
8.068
8.044
8.076
8.072
8.032
8.024
8.06
8.06
8.052
8.036
8.036
8.076
8
8.02
8.028
8.072
8.024
8.016
8.004
8.06
8.028
8.036
8.012
8.06
8.064
8.008
7.984
8.032
8.048
8
8.008
8.02
8.056
8.024
7.988
8
8.04
8.02
8
8.016
8.072
8.032
8
7.992
8.024
8.024
7.976
7.988
8.036
8.032
7.996
7.988
8
8.036
8.004
7.984
8.008
8.052
8.008
7.992
7.992
8.024
7.976
8.012
7.988
8.052
8.092
8.092
8.096
8.14
8.204
8.184
8.156
8.196
8.16
8.096
8.068
8.076
8.092
8.044
7.996
8.016
8.032
7.992
7.976
7.984
8.02
8.024
8.008
7.992
8.04
8
7.984
7.972
7.988
7.932
7.828
7.896
8.188
8.6
9.26
9.856
10.524
11.04
11.104
10.976
10.196
8.964
8.028
7.684
7.576
7.672
7.772
7.844
7.996
8.092
8.052
8.036
8.02
8.036
8.056
8.032
8.016
8.068
8.052
8.044
8.032
8.064
8.076
8.072
8.04
8.06
8.108
8.08
8.06
8.052
8.116
8.12
8.1
8.1
8.152
8.116
8.108
8.12
8.16
8.172
8.16
8.18
8.212
8.2
8.204
8.204
8.232
8.28
8.284
8.3
8.332
8.392
8.392
8.412
8.432
8.5
8.52
8.556
8.62
8.688
8.708
8.732
8.78
8.84
8.904
8.892
8.888
8.948
8.952
8.852
8.84
8.764
8.736
8.644
8.576
8.512
8.484
8.396
8.308
8.272
8.244
8.188
8.16
8.108
8.14
8.1
8.06
8.036
8.08
8.076
8.048
8.028
8.024
8.052
8.024
8.024
8.052
8.068
8.04
8.036
8.04
8.08
8.02
8.016
8.012
8.072
8.048
8.044
8.008
8.072
8.028
8.02
8.012
8.068
8.044
8.028
8.032
8.028
8.064
8.016
8
8.008
8.044
8.028
8.032
8.008
8.052
7.996
8.012
8.004
8.048
8.004
8.012
8.02
8.024
7.996
7.98
7.98
8.032
8.032
8
7.964
7.992
8.012
8
7.976
8
8.028
7.996
7.964
7.968
8.016
7.968
7.972
7.992
8.016
7.98
7.98
7.988
8.012
8.024
7.988
7.956
8.028
8.02
8.008
8
7.992
8.016
8
7.976
7.988
8.02
8.008
7.988
7.968
8.024
7.984
7.984
7.976
8.028
8.016
8.016
8.024
8.096
8.116
8.092
8.116
8.18
8.244
8.196
8.172
8.148
8.156
8.08
8.064
8.08
8.084
8.04
8.016
8.016
8.044
8.016
8.012
8.032
8.052
8.028
8.012
8.008
8.024
8.012
8.024
7.996
7.984
7.896
7.928
8.148
8.572
9.224
9.844
10.468
11.02
11.196
11.116
10.412
9.16
8.216
7.808
7.648
7.724
7.876
7.952
8.036
8.112
8.144
8.104
8.092
8.072
8.092
8.096
8.092
8.076
8.092
8.136
8.1
8.092
8.12
8.152
8.112
8.088
8.116
8.152
8.124
8.124
8.132
8.18
8.156
8.14
8.16
8.192
8.204
8.172
8.192
8.228
8.252
8.236
8.22
8.264
8.3
8.284
8.28
8.336
8.364
8.36
8.372
8.412
8.468
8.5
8.508
8.576
8.624
8.64
8.692
8.724
8.792
8.84
8.872
8.884
8.952
8.992
8.996
8.952
8.968
8.956
8.904
8.848
8.784
8.748
8.624
8.552
8.48
8.456
8.392
8.328
8.268
8.26
8.22
8.172
8.148
8.144
8.136
8.108
8.104
8.108
8.132
8.1
8.076
8.088
8.128
8.092
8.076
8.1
8.136
8.08
8.092
8.104
8.132
8.092
8.112
8.104
8.136
8.104
8.112
8.084
8.128
8.148
8.128
8.096
8.132
8.104
8.108
8.084
8.12
8.136
8.092
8.1
8.1
8.132
8.084
8.076
8.084
8.124
8.092
8.08
8.08
8.088
8.056
8.048
8.06
8.108
8.088
8.08
8.06
8.052
8.084
8.068
8.036
8.06
8.076
8.044
8.044
8.044
8.088
8.036
8.032
8.032
8.076
8.048
8.028
8.04
8.068
8.056
8.032
8.036
8.044
8.064
8.052
8.016
8.052
8.08
8.032
8.024
8.044
8.076
8.056
8.04
8.024
8.068
8.032
8.016
8.016
8.06
8.052
8.044
8.016
8.06
8.032
8.036
8.032
8.056
8.064
8.032
8.02
8.04
8.076
8.04
8.02
8.04
8.076
8.016
8.028
8.048
8.096
8.096
8.108
8.128
8.196
8.216
8.228
8.216
8.212
8.152
8.124
8.088
8.076
8.12
8.092
8.044
8.052
8.06
8.012
8.004
8.04
8.084
8.04
8
8.012
8.064
8.032
8.004
8.032
8.052
7.948
7.88
8
8.308
8.748
9.332
9.936
10.564
11.068
11.116
10.988
10.16
8.884
8
7.656
7.644
7.788
7.86
7.96
8.072
8.12
8.072
8.048
8.064
8.104
8.056
8.048
8.056
8.096
8.092
8.068
8.052
8.104
8.104
8.092
8.068
8.096
8.12
8.1
8.076
8.132
8.144
8.124
8.112
8.108
8.156
8.136
8.148
8.132
8.2
8.16
8.172
8.172
8.228
8.232
8.236
8.256
8.296
8.316
8.3
8.324
8.364
8.42
8.424
8.436
8.504
8.564
8.564
8.596
8.644
8.728
8.744
8.784
8.796
8.904
8.9
8.904
8.928
8.964
8.944
8.904
8.86
8.828
8.76
8.66
8.58
8.556
8.496
8.408
8.348
8.304
8.268
8.196
8.152
8.14
8.148
8.1
8.076
8.064
8.076
8.076
8.044
8.04
8.06
8.052
8.016
8.008
8.06
8.064
8.024
8.008
8.052
8.052
8.04
8.04
8.056
8.076
8.028
8.008
8.024
8.06
8.052
8.036
8.048
8.064
8.036
8.016
8.02
8.04
8.04
8.032
8.008
8.044
8.048
8.012
7.996
8.02
8.04
8.016
8.008
8.008
8.044
8
7.988
8.004
8.024
8.016
8.004
8.012
8.004
8.008
7.996
7.972
7.996
8
7.984
7.968
7.992
7.988
7.984
7.952
7.98
8.012
7.984
7.964
7.976
8.008
7.964
7.932
7.944
8
7.988
7.968
7.936
8.012
7.972
7.968
7.96
8.008
7.996
7.96
7.944
7.988
7.98
7.952
7.956
7.968
8.004
7.956
7.96
7.972
7.996
7.952
7.94
7.956
8
7.988
7.96
7.956
7.996
7.996
7.952
7.96
8
7.98
7.972
7.968
7.98
7.992
7.968
7.932
7.996
8
7.952
7.936
7.964
7.992
7.94
7.944
7.936
7.992
7.956
7.988
8.02
8.06
8.092
8.064
8.068
8.168
8.18
8.144
8.088
8.092
8.076
8.024
7.976
8.036
8.028
7.98
7.96
7.948
7.96
7.916
7.944
7.948
7.988
7.952
7.948
7.928
7.968
7.94
7.928
7.892
7.84
7.86
8.06
8.392
9
9.624
10.228
10.792
11.044
11.064
10.524
9.32
8.196
7.704
7.52
7.588
7.724
7.86
7.968
8.028
8.004
8.004
7.988
7.984
7.992
7.984
8.008
8
7.968
7.968
7.996
7.992
8
8.012
8.028
7.996
8.02
7.996
8.02
8.008
8.028
8.032
8.056
8.044
8.064
8.068
8.076
8.076
8.072
8.064
8.104
8.116
8.136
8.124
8.144
8.152
8.164
8.208
8.232
8.24
8.272
8.28
8.312
8.336
8.368
8.416
8.464
8.48
8.54
8.612
8.64
8.664
8.732
8.768
8.808
8.832
8.856
8.852
8.852
8.852
8.836
8.788
8.728
8.64
8.604
8.504
8.448
8.38
8.336
8.244
8.192
8.148
8.1
8.044
8.056
8.02
8.008
7.98
7.992
7.988
7.976
7.98
7.96
7.952
7.952
7.948
7.952
7.976
7.948
7.956
7.956
7.956
7.956
7.968
7.94
7.984
7.98
7.96
7.964
7.948
7.948
7.916
7.964
7.944
7.964
7.956
7.952
7.952
7.94
7.952
7.948
7.948
7.956
7.924
7.928
7.924
7.932
7.928
7.904
7.924
7.936
7.908
7.912
7.892
7.912
7.904
7.888
7.9
7.924
7.892
7.9
7.912
7.892
7.904
7.888
7.9
7.892
7.908
7.868
7.888
7.892
7.86
7.88
7.86
7.888
7.896
7.88
7.852
7.884
7.868
7.888
7.876
7.876
7.876
7.868
7.868
7.852
7.868
7.868
7.86
7.868
7.876
7.872
7.832
7.86
7.852
7.88
7.864
7.856
7.88
7.884
7.88
7.864
7.856
7.872
7.844
7.848
7.84
7.864
7.864
7.832
7.88
7.872
7.84
7.86
7.868
7.836
7.876
7.844
7.856
7.856
7.864
7.864
7.84
7.864
7.856
7.844
7.852
7.864
7.892
7.908
7.92
7.972
7.964
8.048
8.032
8.032
8.008
7.96
7.936
7.924
7.912
7.912
7.872
7.868
7.84
7.844
7.828
7.816
7.84
7.84
7.832
7.808
7.828
7.824
7.84
7.824
7.844
7.812
7.708
7.668
7.832
8.164
8.696
9.36
9.992
10.596
10.904
10.904
10.568
9.5
8.296
7.644
7.436
7.432
7.516
7.66
7.756
7.852
7.896
7.9
7.872
7.872
7.868
7.88
7.864
7.864
7.868
7.868
7.872
7.9
7.876
7.9
7.876
7.896
7.884
7.896
7.936
7.916
7.916
7.924
7.948
7.928
7.92
7.948
7.956
7.964
7.976
7.98
7.984
7.968
7.976
8
8.012
8.044
8.096
8.092
8.088
8.116
8.128
8.16
8.196
8.228
8.256
8.292
8.344
8.368
8.42
8.444
8.508
8.54
8.584
8.612
8.664
8.696
8.708
8.74
8.736
8.748
8.724
8.672
8.624
8.568
8.476
8.392
8.312
8.276
8.188
8.152
8.096
8.044
7.992
7.952
7.928
7.916
7.876
7.848
7.872
7.876
7.868
7.84
7.844
7.832
7.848
7.82
7.84
7.824
7.848
7.84
7.832
7.84
7.84
7.856
7.82
7.836
7.852
7.852
7.836
7.844
7.852
7.848
7.836
7.832
7.832
7.824
7.812
7.832
7.82
7.844
7.832
7.86
7.832
7.82
7.804
7.8
7.812
7.816
7.828
7.808
7.788
7.804
7.808
7.792
7.796
7.808
7.828
7.796
7.808
7.796
7.804
7.768
7.772
7.804
7.808
7.776
7.808
7.776
7.792
7.78
7.78
7.804
7.796
7.772
7.78
7.768
7.788
7.764
7.744
7.772
7.804
7.76
7.768
7.788
7.776
7.764
7.744
7.768
7.772
7.812
7.776
7.796
7.756
7.772
7.792
7.78
7.792
7.86
7.84
7.876
7.892
7.984
7.976
7.96
7.936
7.928
7.9
7.852
7.848
7.832
7.808
7.776
7.788
7.8
7.804
7.784
7.792
7.772
7.792
7.784
7.78
7.8
7.808
7.788
7.78
7.776
7.72
7.636
7.672
7.96
8.34
9.028
9.656
10.284
10.792
10.928
10.852
10.096
8.804
7.916
7.548
7.42
7.472
7.612
7.712
7.8
7.88
7.884
7.84
7.848
7.824
7.844
7.868
7.848
7.872
7.868
7.892
7.86
7.872
7.868
7.892
7.888
7.896
7.908
7.9
7.892
7.912
7.9
7.928
7.928
7.948
7.968
7.976
7.98
7.956
7.972
8
8.02
7.992
8.044
8.052
8.052
8.048
8.076
8.1
8.156
8.16
8.204
8.208
8.268
8.252
8.296
8.344
8.416
8.44
8.484
8.528
8.588
8.62
8.636
8.7
8.736
8.768
8.78
8.788
8.784
8.736
8.68
8.632
8.572
8.504
8.436
8.372
8.288
8.236
8.18
8.108
8.064
8.06
8.02
7.996
7.984
7.972
7.94
7.916
7.92
7.928
7.928
7.9
7.92
7.924
7.936
7.916
7.912
7.912
7.94
7.932
7.932
7.936
7.952
7.94
7.92
7.944
7.956
7.956
7.94
7.928
7.94
7.932
7.924
7.944
7.94
7.968
7.928
7.948
7.944
7.96
7.928
7.952
7.932
7.96
7.94
7.928
7.948
7.932
7.908
7.932
7.916
7.948
7.94
7.94
7.924
7.952
7.94
7.896
7.9
7.936
7.936
7.936
7.92
7.908
7.936
7.924
7.916
7.932
7.944
7.924
7.912
7.932
7.912
7.912
7.904
7.916
7.944
7.932
7.936
7.936
7.952
7.932
7.928
7.936
7.952
7.956
7.928
7.944
7.96
7.956
7.94
7.944
7.936
7.952
7.932
7.94
7.96
7.996
8.016
8.048
8.056
8.084
8.156
8.152
8.128
8.116
8.08
8.024
8.016
8.024
8.032
7.968
7.988
7.98
7.952
7.944
7.928
7.968
7.96
7.948
7.944
7.932
7.936
7.92
7.988
7.96
7.948
7.876
7.84
7.928
8.228
8.652
9.292
9.904
10.5
10.98
11.092
10.98
10.112
8.796
7.956
7.664
7.576
7.704
7.82
7.928
8.032
8.036
8.012
8.044
8.012
8.024
8.012
8.032
8.032
8.028
8.02
8.024
8.048
8.032
8.048
8.06
8.076
8.028
8.064
8.064
8.084
8.084
8.08
8.104
8.12
8.096
8.104
8.132
8.16
8.144
8.14
8.144
8.196
8.188
8.18
8.204
8.22
8.232
8.256
8.268
8.332
8.328
8.344
8.352
8.396
8.476
8.488
8.532
8.56
8.636
8.648
8.696
8.752
8.816
8.832
8.872
8.892
8.948
8.928
8.948
8.936
8.888
8.868
8.784
8.732
8.652
8.592
8.496
8.432
8.4
8.348
8.288
8.22
8.204
8.192
8.128
8.104
8.092
8.12
8.096
8.064
8.064
8.084
8.076
8.06
8.044
8.092
8.08
8.048
8.048
8.068
8.084
8.056
8.044
8.072
8.092
8.056
8.064
8.072
8.092
8.08
8.068
8.044
8.084
8.088
8.076
8.06
8.104
8.08
8.072
8.048
8.08
8.068
8.064
8.044
8.056
8.068
8.036
8.028
8.068
8.052
8.06
8.052
8.032
8.048
8.048
8.044
8.028
8.08
8.056
8.048
8.024
8.036
8.028
8.036
8.04
8.068
8.048
8.028
8.008
8.032
8.032
8.024
8.016
8.056
8.06
8.028
8.024
8.02
8.036
8.02
8.02
8.036
8.052
8.028
8.028
8
8.044
8.036
8.02
8.016
8.04
8.052
8.016
8.008
8.028
8.028
8.024
8
8.048
8.052
8.036
8
8.024
8.044
8.028
8.004
8.024
8.064
8.032
8.056
8.052
8.128
8.132
8.14
8.156
8.24
8.236
8.204
8.148
8.144
8.136
8.088
8.084
8.108
8.084
8.052
8.036
7.996
8.044
8.044
8.044
8
8.048
8.04
8.024
8
8.064
8.048
8.032
7.984
7.924
7.96
8.136
8.46
9.052
9.66
10.296
10.864
11.124
11.144
10.652
9.452
8.312
7.808
7.616
7.656
7.78
7.928
8.032
8.104
8.076
8.108
8.088
8.076
8.06
8.076
8.068
8.06
8.072
8.064
8.084
8.1
8.1
8.088
8.116
8.096
8.116
8.084
8.14
8.124
8.108
8.128
8.168
8.12
8.144
8.132
8.168
8.176
8.164
8.176
8.204
8.2
8.18
8.188
8.244
8.26
8.26
8.284
8.312
8.348
8.324
8.344
8.4
8.452
8.48
8.508
8.536
8.62
8.608
8.652
8.688
8.772
8.788
8.82
8.876
8.92
8.948
8.908
8.932
8.92
8.896
8.82
8.748
8.696
8.636
8.548
8.476
8.408
8.368
8.304
8.236
8.18
8.2
8.148
8.12
8.068
8.072
8.088
8.044
8.04
8.052
8.044
8.02
8.012
8.032
8.036
8.016
8.044
8.008
8.06
8.024
8.028
8.028
8.036
8.056
8.048
8.032
8.064
8.016
8.024
8
8.048
8.044
8.024
8.016
8.036
8.048
7.988
8.008
8.04
8.056
7.992
7.988
8.004
8.008
8.008
8.004
7.996
8.04
8
8.012
8
8.012
7.984
7.972
7.976
8
8.02
7.968
7.992
7.996
7.972
7.956
7.956
7.956
8
7.96
7.964
7.96
7.96
7.956
7.952
7.952
7.996
7.972
7.952
7.948
7.956
7.956
7.944
7.948
7.98
7.964
7.94
7.932
7.944
7.952
7.936
7.94
7.944
7.98
7.968
7.932
7.948
7.96
7.936
7.92
7.936
7.988
7.964
7.964
7.988
8.056
8.044
8.036
8.12
8.152
8.148
8.124
8.068
8.06
8.04
7.996
7.996
7.964
8.008
7.956
7.936
7.92
7.96
7.916
7.92
7.916
7.964
7.936
7.936
7.916
7.948
7.944
7.932
7.88
7.808
7.776
7.956
8.292
8.928
9.648
10.228
10.812
11.028
11.052
10.46
9.248
8.184
7.748
7.572
7.624
7.7
7.804
7.912
7.96
7.976
7.992
7.968
7.948
7.948
7.932
7.96
7.948
7.956
7.972
7.96
7.976
7.968
8.008
7.996
7.996
7.984
7.984
7.988
8
7.916
8.02
8.04
8.04
8.024
7.98
8.064
8.056
8.036
8.092
8.084
8.112
8.088
8.104
8.132
8.156
8.16
8.192
8.204
8.236
8.256
8.28
8.304
8.34
8.368
8.404
8.452
8.496
8.548
8.576
8.624
8.66
8.708
8.736
8.76
8.816
8.816
8.816
8.804
8.776
8.772
8.716
8.648
8.58
8.54
8.452
8.392
8.304
8.272
8.188
8.168
8.12
8.076
8.056
8.004
8.024
8.02
7.988
7.964
7.996
7.984
7.964
7.948
7.972
7.968
7.984
7.968
7.992
8
8.008
7.992
7.968
8.004
8.004
8
8
7.992
7.992
7.996
7.972
8
8
8.008
8
8.008
8.008
7.988
7.968
7.972
7.996
8
7.992
7.988
7.988
7.992
7.984
7.996
7.98
7.992
7.972
7.992
7.964
7.984
7.968
7.964
7.976
7.952
7.96
7.972
7.996
7.976
7.952
7.964
7.952
7.972
7.98
7.968
7.948
7.972
7.972
7.976
7.96
7.96
7.98
7.984
7.988
7.988
7.98
7.968
7.952
7.964
7.976
7.992
7.972
7.992
7.996
7.976
7.968
7.984
7.996
7.984
7.984
7.992
7.976
7.992
7.992
7.976
7.972
7.976
8
8.012
8.028
8.028
8.068
8.072
8.112
8.148
8.188
8.184
8.188
8.14
8.108
8.08
8.084
8.076
8.068
8.048
8.048
8.02
7.992
8.004
7.996
8.012
8.024
8.024
7.988
7.996
8
8.008
7.984
8.02
7.972
7.9
7.88
8.14
8.472
9
9.604
10.264
10.828
11.128
11.16
10.732
9.556
8.38
7.816
7.652
7.708
7.836
7.932
8.04
8.112
8.088
8.08
8.04
8.072
8.076
8.068
8.044
8.08
8.06
8.044
8.056
8.088
8.096
8.084
8.096
8.104
8.112
8.08
8.088
8.088
8.132
8.108
8.124
8.112
8.136
8.148
8.152
8.148
8.184
8.2
8.188
8.184
8.224
8.212
8.232
8.232
8.292
8.3
8.316
8.332
8.368
8.372
8.396
8.436
8.48
8.52
8.572
8.592
8.636
8.704
8.732
8.776
8.796
8.872
8.916
8.94
8.952
8.96
8.968
8.932
8.884
8.856
8.784
8.696
8.632
8.572
8.496
8.436
8.364
8.308
8.292
8.232
8.184
8.16
8.124
8.112
8.084
8.1
8.108
8.076
8.072
8.06
8.088
8.068
8.048
8.076
8.052
8.056
8.064
8.064
8.076
8.068
8.048
8.072
8.068
8.1
8.088
8.064
8.052
8.072
8.064
8.068
8.056
8.096
8.084
8.076
8.056
8.092
8.052
8.06
8.084
8.068
8.084
8.056
8.06
8.052
8.04
8.048
8.04
8.02
8.072
8.056
8.032
8.036
8.02
8.02
8.028
8.028
8.032
8.024
8.032
8.016
8.032
8.032
8.012
8.036
8.048
8.052
7.996
8.028
8.032
8.044
8.012
8.024
8.012
8.016
8.004
8.012
8.016
8.032
8.016
8.008
8.012
8.02
8.024
8.028
7.992
8.028
8.032
8.024
8.028
8.04
8.012
8.036
8.024
8.04
8.016
8.028
8.008
8.044
8.02
8.04
8.004
7.992
8.028
8.024
8.044
8.024
8.02
8.008
8.004
8.032
8.068
8.072
8.096
8.136
8.14
8.196
8.208
8.184
8.176
8.136
8.116
8.088
8.076
8.048
8.056
8.056
8.02
8.028
8.032
8.02
8.012
8.04
8.032
8.02
7.996
8.036
8.008
8.012
8.016
8.02
7.956
7.868
7.96
8.26
8.628
9.24
9.86
10.484
11.012
11.096
11.044
10.332
9.016
8.08
7.692
7.608
7.708
7.84
7.96
8.072
8.096
8.1
8.076
8.08
8.1
8.072
8.08
8.064
8.072
8.092
8.084
8.076
8.112
8.088
8.096
8.076
8.092
8.12
8.104
8.128
8.116
8.14
8.128
8.128
8.14
8.156
8.148
8.172
8.192
8.196
8.192
8.192
8.224
8.228
8.224
8.252
8.284
8.3
8.32
8.336
8.36
8.384
8.428
8.452
8.484
8.516
8.544
8.584
8.628
8.656
8.728
8.768
8.804
8.844
8.908
8.92
8.936
8.976
9.004
8.992
8.948
8.88
8.844
8.768
8.712
8.628
8.568
8.52
8.444
8.372
8.324
8.3
8.24
8.184
8.168
8.168
8.144
8.088
8.088
8.1
8.088
8.04
8.06
8.084
8.088
8.072
8.072
8.08
8.096
8.06
8.06
8.056
8.1
8.08
8.036
8.096
8.084
8.072
8.036
8.072
8.084
8.096
8.044
8.04
8.072
8.08
8.032
8.044
8.064
8.064
8.048
8.036
8.048
8.052
8.04
8.024
8.044
8.044
8.072
8.044
8.02
8.06
8.004
8.012
8.02
8.032
8.028
8.004
7.992
8.024
8.02
7.992
8
8
7.996
8.016
7.988
8.008
8
8.004
7.98
7.996
7.996
8.004
7.988
7.964
7.992
8.02
7.968
7.988
7.992
7.992
7.976
7.968
7.988
7.992
7.988
7.964
7.976
7.992
8
7.984
7.968
7.98
7.98
7.96
7.984
7.992
8.004
7.94
7.948
7.972
7.968
7.952
7.968
8.004
7.98
7.952
7.944
7.996
7.968
7.952
7.948
7.976
7.984
7.976
7.96
7.948
7.968
7.948
7.968
7.964
7.968
7.96
7.928
7.916
7.952
7.964
7.984
8
8.056
8.064
8.06
8.116
8.172
8.156
8.088
8.036
8.06
8.064
8.008
7.92
7.96
7.984
7.948
7.92
7.92
7.972
7.916
7.872
7.904
7.968
7.932
7.86
7.916
7.992
7.94
7.884
7.768
7.764
7.964
8.264
8.832
9.572
10.2
10.744
10.984
10.98
10.58
9.396
8.268
7.748
7.608
7.584
7.624
7.736
7.896
8
7.96
7.952
7.992
7.988
7.932
7.944
8.012
7.996
7.96
7.936
8.004
7.952
7.972
7.98
7.98
7.992
8.02
8.004
8
8.084
8.024
8.004
8.036
8.052
8.072
8.06
8.056
8.056
8.076
8.072
8.088
8.1
8.096
8.124
8.136
8.156
8.184
8.18
8.16
8.208
8.236
8.252
8.272
8.308
8.328
8.38
8.396
8.448
8.488
8.544
8.564
8.624
8.66
8.68
8.696
8.752
8.796
8.852
8.812
8.8
8.772
8.768
8.7
8.588
8.56
8.52
8.428
8.352
8.308
8.256
8.192
8.112
8.08
8.088
8.044
7.996
7.956
7.988
7.964
7.928
7.916
7.94
7.952
7.936
7.944
7.936
7.944
7.932
7.92
7.952
7.964
7.964
7.948
7.924
7.96
7.94
7.94
7.924
7.96
7.968
7.948
7.948
7.964
7.94
7.932
7.924
7.948
7.956
7.956
7.94
7.932
7.956
7.912
7.916
7.904
7.964
7.944
7.92
7.936
7.916
7.912
7.904
7.904
7.924
7.912
7.912
7.9
7.932
7.924
7.908
7.884
7.916
7.936
7.876
7.896
7.912
7.904
7.908
7.888
7.892
7.924
7.928
7.908
7.892
7.94
7.9
7.916
7.928
7.944
7.928
7.888
7.892
7.904
7.904
7.92
7.928
7.972
8.012
8.016
8.04
8.076
8.1
8.112
8.092
8.072
8.048
8.016
7.988
7.98
7.972
7.964
7.928
7.92
7.956
7.952
7.892
7.916
7.94
7.94
7.908
7.928
7.932
7.952
7.932
7.924
7.892
7.824
7.78
7.944
8.268
8.828
9.484
10.076
10.696
11.052
11.096
10.772
9.716
8.504
7.88
7.636
7.628
7.76
7.828
7.908
8.024
8.052
8.012
7.992
7.992
7.988
8.024
8.016
8
8.048
8.06
8.044
8.004
8.032
8.044
8.04
8.024
8.06
8.088
8.084
8.064
8.096
8.104
8.096
8.108
8.108
8.128
8.132
8.144
8.112
8.164
8.164
8.176
8.16
8.212
8.236
8.216
8.216
8.232
8.296
8.312
8.332
8.356
8.404
8.428
8.428
8.488
8.516
8.572
8.596
8.672
8.708
8.776
8.78
8.8
8.88
8.904
8.912
8.896
8.924
8.912
8.844
8.776
8.736
8.668
8.6
8.512
8.472
8.384
8.328
8.236
8.22
8.18
8.156
8.108
8.088
8.088
8.064
8.06
8.048
8.064
8.052
8.052
8.036
8.06
8.048
8.048
8.02
8.036
8.06
8.04
8.052
8.052
8.068
8.052
8.036
8.052
8.06
8.056
8.052
8.056
8.072
8.056
8.06
8.028
8.06
8.06
8.056
8.044
8.06
8.072
8.032
8.024
8.028
8.068
8.056
8.04
8.06
8.044
8.04
8.008
8.056
8.06
8.056
8.04
8.032
8.04
8.04
8.032
8.004
8.044
8.036
8.044
8.004
8.048
8.024
8.016
8
8.012
8.024
8.036
8.008
8.036
8.032
8.036
7.996
8.024
8.052
8.044
8.044
8.04
8.036
8.064
8.016
8.02
8.044
8.02
8.048
8.024
8.024
8.028
8.028
8.028
8.072
8.12
8.136
8.14
8.156
8.204
8.252
8.204
8.196
8.156
8.132
8.116
8.084
8.08
8.084
8.076
8.032
8.024
8.048
8.032
8
8.004
8.044
8.036
8.012
8.02
8.032
8.044
8.032
8.024
7.992
7.916
7.956
8.24
8.652
9.232
9.808
10.42
10.988
11.128
11.08
10.388
9.112
8.144
7.728
7.596
7.72
7.856
7.96
8.064
8.132
8.116
8.112
8.048
8.092
8.088
8.088
8.048
8.084
8.132
8.108
8.108
8.084
8.116
8.116
8.104
8.112
8.144
8.156
8.14
8.12
8.14
8.16
8.16
8.124
8.188
8.2
8.212
8.168
8.192
8.208
8.228
8.208
8.232
8.256
8.288
8.284
8.268
8.3
8.344
8.36
8.352
8.432
8.46
8.488
8.488
8.536
8.62
8.636
8.676
8.724
8.796
8.832
8.836
8.876
8.928
8.984
8.952
8.976
9
8.952
8.88
8.82
8.764
8.688
8.604
8.548
8.492
8.432
8.352
8.288
8.248
8.224
8.184
8.164
8.148
8.156
8.14
8.096
8.112
8.108
8.088
8.072
8.08
8.096
8.092
8.048
8.068
8.068
8.104
8.076
8.096
8.1
8.116
8.1
8.072
8.076
8.092
8.1
8.072
8.104
8.096
8.104
8.068
8.072
8.092
8.108
8.068
8.072
8.108
8.096
8.064
8.056
8.08
8.084
8.076
8.06
8.08
8.072
8.08
8.044
8.052
8.08
8.076
8.056
8.072
8.088
8.048
8.032
8.02
8.06
8.048
8.028
8.032
8.052
8.048
8.008
8.024
8.028
8.036
8.012
8.032
8.052
8.068
8.024
8.032
8.048
8.044
8.032
8.028
8.028
8.028
8.048
8.016
8.032
8.04
8.06
8.028
8.044
8.036
8.032
8.02
8.02
8.02
8.032
8.004
8
8.032
8.048
8.064
8.092
8.12
8.144
8.16
8.192
8.212
8.204
8.192
8.116
8.1
8.104
8.088
8.056
8.036
8.052
8.024
7.992
7.992
8.012
8.036
8.004
8
7.996
7.996
8.008
7.984
7.996
8.04
7.992
7.884
7.836
7.944
8.236
8.688
9.364
10.012
10.608
11.028
11.072
10.916
9.996
8.732
7.908
7.656
7.572
7.68
7.772
7.896
8.044
8.044
8.008
8.024
8.036
8.052
8.004
8.028
8.028
8.04
8.004
8.044
8.052
8.064
8.02
8.028
8.06
8.052
8.064
8.044
8.08
8.088
8.084
8.056
8.076
8.084
8.064
8.056
8.088
8.124
8.156
8.124
8.14
8.156
8.16
8.16
8.184
8.216
8.236
8.224
8.284
8.296
8.316
8.324
8.332
8.416
8.432
8.472
8.476
8.52
8.588
8.636
8.66
8.696
8.776
8.796
8.792
8.828
8.88
8.864
8.836
8.812
8.78
8.736
8.632
8.568
8.516
8.456
8.376
8.308
8.272
8.224
8.164
8.096
8.088
8.048
8.04
8.016
8
8.004
8.02
7.98
7.964
7.98
7.992
7.988
7.976
7.976
7.992
7.964
7.972
7.992
7.972
7.976
7.94
7.976
7.98
7.968
7.944
7.96
7.968
7.96
7.952
7.952
7.956
7.968
7.956
7.964
7.992
7.976
7.968
7.936
7.936
7.96
7.932
7.936
7.936
7.92
7.952
7.924
7.948
7.96
7.92
7.924
7.92
7.92
7.936
7.904
7.924
7.932
7.924
7.892
7.884
7.92
7.924
7.896
7.92
7.932
7.928
7.9
7.896
7.916
7.916
7.892
7.908
7.92
7.936
7.9
7.884
7.868
7.888
7.896
7.88
7.904
7.988
7.996
7.968
8
8.104
8.092
8.064
8.048
8.032
7.984
7.972
7.948
7.92
7.924
7.916
7.864
7.888
7.868
7.892
7.884
7.848
7.9
7.912
7.876
7.888
7.916
7.884
7.876
7.844
7.864
7.74
7.716
7.916
8.264
8.876
9.56
10.164
10.752
10.976
10.972
10.464
9.24
8.16
7.704
7.528
7.536
7.656
7.772
7.844
7.932
7.964
7.924
7.904
7.892
7.92
7.94
7.928
7.928
7.952
7.936
7.924
7.916
7.952
7.952
7.96
7.98
7.968
7.992
7.988
7.984
7.988
8.008
8.004
8.004
8
8.024
8.036
8.008
8.04
8.064
8.084
8.08
8.1
8.096
8.124
8.12
8.12
8.144
8.204
8.204
8.228
8.244
8.308
8.324
8.34
8.404
8.452
8.5
8.5
8.532
8.6
8.64
8.648
8.696
8.76
8.772
8.788
8.796
8.776
8.752
8.696
8.636
8.592
8.536
8.456
8.372
8.308
8.268
8.22
8.148
8.104
8.104
8.072
8.04
8.008
8.024
7.988
7.968
7.968
7.996
8.008
7.968
7.968
7.984
7.972
7.964
7.948
7.996
8.008
7.992
7.976
7.988
8
7.992
7.984
8
8.012
8.024
7.992
7.984
8.012
8.008
7.98
7.992
8.012
8.016
7.988
7.988
7.988
7.984
7.984
7.972
7.996
8.004
7.988
7.952
7.988
7.996
7.98
7.976
7.992
8.004
7.972
7.968
7.976
7.984
7.964
7.96
7.98
8
7.996
7.956
7.976
7.976
7.964
7.944
7.964
7.992
8
7.948
7.968
7.956
7.964
7.96
7.964
7.964
7.992
7.984
7.956
7.952
7.98
7.964
7.964
7.96
7.964
7.984
7.964
7.992
7.948
8.04
8.056
8.084
8.088
8.132
8.168
8.184
8.144
8.136
8.084
8.068
8.068
8.068
8.056
8.004
8.008
8.012
8.008
7.972
7.976
8
8.012
7.98
7.96
8.004
7.988
7.976
8.004
8
7.996
7.912
7.852
7.968
8.288
8.72
9.304
9.908
10.52
10.996
11.068
10.956
10.104
8.808
7.948
7.636
7.648
7.768
7.856
7.944
8.04
8.076
8.048
8.012
8.036
8.024
8.016
8.04
8.044
8.04
8.064
8.064
8.06
8.068
8.08
8.064
8.052
8.076
8.104
8.08
8.084
8.1
8.116
8.096
8.088
8.112
8.148
8.144
8.144
8.164
8.16
8.176
8.16
8.188
8.216
8.22
8.212
8.264
8.276
8.296
8.276
8.34
8.372
8.408
8.428
8.46
8.508
8.528
8.556
8.592
8.644
8.7
8.744
8.764
8.824
8.884
8.872
8.9
8.94
8.924
8.904
8.88
8.808
8.768
8.7
8.596
8.544
8.48
8.444
8.368
8.308
8.26
8.244
8.18
8.148
8.14
8.132
8.116
8.088
8.084
8.096
8.072
8.052
8.048
8.096
8.084
8.064
8.072
8.088
8.084
8.044
8.056
8.084
8.08
8.076
8.088
8.096
8.104
8.088
8.06
8.068
8.112
8.1
8.088
8.072
8.108
8.08
8.06
8.092
8.084
8.084
8.06
8.076
8.084
8.076
8.072
8.056
8.104
8.092
8.052
8.056
8.08
8.064
8.056
8.048
8.064
8.072
8.072
8.036
8.064
8.072
8.048
8.036
8.04
8.08
8.06
8.032
8.036
8.048
8.068
8.024
8.044
8.076
8.068
8.036
8.048
8.048
8.032
8.028
8.044
8.056
8.084
8.06
8.048
8.048
8.056
8.048
8.012
8.06
8.044
8.072
8.048
8.04
8.068
8.06
8.036
8.024
8.068
8.08
8.052
8.032
8.088
8.056
8.048
8.064
8.072
8.08
8.06
8.044
8.04
8.06
8.044
8.048
8.056
8.084
8.08
8.068
8.036
8.06
8.056
8.06
8.088
8.164
8.164
8.168
8.152
8.244
8.28
8.244
8.212
8.208
8.188
8.14
8.104
8.116
8.12
8.112
8.06
8.084
8.072
8.056
8.044
8.04
8.068
8.076
8.048
8.048
8.072
8.064
8.056
8.024
7.98
7.94
8.056
8.36
8.812
9.416
9.98
10.592
11.076
11.156
11.012
10.084
8.812
7.992
7.68
7.648
7.792
7.916
8.044
8.12
8.156
8.152
8.144
8.12
8.1
8.096
8.128
8.104
8.108
8.12
8.128
8.112
8.12
8.14
8.148
8.148
8.132
8.152
8.16
8.16
8.144
8.16
8.176
8.184
8.168
8.196
8.208
8.212
8.208
8.2
8.224
8.244
8.244
8.272
8.284
8.304
8.292
8.292
8.332
8.364
8.408
8.408
8.424
8.464
8.496
8.508
8.544
8.608
8.652
8.696
8.744
8.788
8.832
8.852
8.864
8.944
8.956
8.98
8.976
8.96
8.952
8.888
8.84
8.784
8.72
8.64
8.568
8.512
8.448
8.396
8.312
8.268
8.232
8.204
8.176
8.164
8.148
8.128
8.108
8.088
8.112
8.092
8.076
8.104
8.072
8.108
8.112
8.088
8.072
8.092
8.1
8.072
8.076
8.088
8.076
8.072
8.076
8.084
8.112
8.092
8.088
8.092
8.1
8.072
8.076
8.092
8.084
8.076
8.064
8.072
8.072
8.052
8.048
8.056
8.092
8.068
8.04
8.048
8.076
8.044
8.044
8.04
8.032
8.068
8.028
8.04
8.052
8.052
8.004
8.028
8.04
8.072
8.056
8.016
8.028
8.02
8.012
8
8.028
8.036
8.02
8
7.988
8.012
8.024
7.996
7.984
8.036
8.024
8.008
7.972
7.996
8.024
7.984
7.976
7.988
8.032
8.02
7.996
7.996
7.98
7.968
7.988
7.988
7.984
7.988
7.968
7.992
7.996
8.004
7.992
7.976
8.008
8
7.988
8.004
8.004
7.992
7.988
7.968
7.996
8.008
7.996
7.972
7.972
8.004
7.992
7.968
7.98
7.988
8.008
7.956
7.972
7.988
7.988
7.96
7.972
7.98
7.952
7.932
7.952
8
8.028
8.064
8.076
8.108
8.16
8.16
8.148
8.16
8.124
8.08
8.048
8.036
8.048
8.02
7.98
7.972
7.96
7.944
7.952
7.96
7.964
7.964
7.932
7.952
7.968
7.956
7.94
7.948
7.944
7.9
7.8
7.86
8.14
8.564
9.208
9.844
10.488
10.984
11.02
10.896
10.112
8.848
7.976
7.644
7.556
7.624
7.744
7.832
7.936
8.024
8.028
7.984
7.992
7.996
8.016
7.992
7.964
7.972
7.984
8
8
8
8.004
8.02
8.004
7.988
8.024
8.028
8.024
8.036
8.052
8.052
8.024
8.044
8.064
8.068
8.08
8.076
8.076
8.088
8.092
8.076
8.088
8.152
8.156
8.136
8.164
8.196
8.188
8.216
8.228
8.284
8.332
8.304
8.356
8.388
8.464
8.48
8.52
8.572
8.612
8.648
8.704
8.716
8.756
8.78
8.784
8.824
8.82
8.796
8.752
8.724
8.624
8.584
8.504
8.44
8.4
8.36
8.276
8.204
8.176
8.128
8.076
8.044
8.016
8.012
7.98
7.896
7.976
7.972
7.94
7.94
7.956
7.972
7.948
7.944
7.936
7.964
7.96
7.936
7.936
7.964
7.984
7.944
7.94
7.96
7.94
7.944
7.924
7.956
7.98
7.968
7.952
7.964
7.968
7.928
7.928
7.952
7.976
7.948
7.932
7.928
7.956
7.92
7.924
7.924
7.944
7.944
7.908
7.924
7.924
7.94
7.928
7.88
7.932
7.928
7.924
7.912
7.928
7.928
7.904
7.9
7.924
7.948
7.92
7.892
7.908
7.936
7.892
7.896
7.916
7.948
7.94
7.904
7.912
7.928
7.916
7.912
7.892
7.916
7.944
7.952
7.916
7.932
7.912
7.928
7.92
7.936
7.952
7.928
7.924
7.912
7.94
7.956
7.936
7.96
8.036
8.056
8.028
8.064
8.112
8.152
8.124
8.076
8.076
8.076
8.004
7.984
8.008
7.976
7.948
7.948
7.944
7.984
7.944
7.912
7.928
7.948
7.936
7.912
7.948
7.972
7.94
7.956
7.924
7.864
7.784
7.896
8.164
8.648
9.272
9.892
10.488
11
11.072
10.928
10.08
8.8
7.956
7.664
7.592
7.696
7.816
7.9
7.992
8.032
8.052
8.036
8.012
7.984
8.012
8.036
8
8.012
8.044
8.04
8.028
8.024
8.028
8.048
8.04
8.044
8.068
8.104
8.072
8.056
8.072
8.08
8.088
8.096
8.096
8.124
8.14
8.116
8.136
8.16
8.172
8.144
8.152
8.216
8.228
8.216
8.248
8.276
8.296
8.312
8.32
8.384
8.412
8.428
8.452
8.484
8.568
8.6
8.656
8.688
8.736
8.78
8.816
8.812
8.884
8.916
8.928
8.928
8.928
8.896
8.804
8.716
8.688
8.612
8.548
8.496
8.428
8.328
8.304
8.236
8.196
8.176
8.136
8.104
8.092
8.06
8.056
8.064
8.04
8.02
8.064
8.028
8.048
8.024
8.04
8.052
8.04
8.056
8.072
8.048
8.04
8.044
8.064
8.048
8.04
8.04
8.056
8.072
8.052
8.056
8.064
8.052
8.044
8.04
8.044
8.064
8.04
8.048
8.064
8.06
8.04
8.032
8.052
8.052
8.048
8.032
8.04
8.048
8.032
8.004
8.028
8.036
8.044
8.028
8.024
8.016
8.024
8.024
8.016
8.028
8.024
8.028
8.012
8.024
8.028
8.024
8.004
8.024
8.032
8.008
8.02
8.016
8.028
8.02
7.976
8.012
8.028
8.016
8
7.992
8.036
8.02
8.016
8
8.04
8.036
8.028
8.008
8.028
8.036
8.024
8.02
8.04
8.044
8.036
8
8.016
8.048
8.052
8.068
8.128
8.136
8.16
8.168
8.216
8.244
8.224
8.172
8.124
8.136
8.12
8.092
8.068
8.08
8.084
8.04
8.024
8.044
8.06
8.048
8.04
8.024
8.052
8.02
8.032
8.02
8.06
8.064
8.016
7.932
7.916
8.052
8.344
8.832
9.492
10.108
10.696
11.072
11.144
10.936
9.92
8.648
7.94
7.684
7.676
7.776
7.912
8.036
8.124
8.124
8.096
8.116
8.124
8.092
8.1
8.108
8.116
8.1
8.096
8.136
8.14
8.128
8.112
8.12
8.116
8.128
8.132
8.152
8.172
8.156
8.128
8.148
8.16
8.196
8.184
8.18
8.208
8.216
8.196
8.212
8.256
8.248
8.264
8.272
8.304
8.336
8.324
8.312
8.372
8.416
8.404
8.44
8.484
8.512
8.556
8.584
8.628
8.688
8.708
8.764
8.808
8.852
8.904
8.896
8.948
8.96
9.016
8.996
8.968
8.96
8.912
8.82
8.744
8.688
8.636
8.544
8.496
8.428
8.384
8.304
8.26
8.228
8.204
8.192
8.148
8.156
8.136
8.132
8.128
8.108
8.136
8.128
8.124
8.108
8.104
8.1
8.128
8.088
8.092
8.132
8.104
8.104
8.136
8.128
8.12
8.108
8.116
8.132
8.132
8.12
8.116
8.124
8.132
8.1
8.096
8.132
8.14
8.136
8.1
8.124
8.12
8.088
8.1
8.132
8.132
8.112
8.112
8.116
8.14
8.12
8.076
8.096
8.136
8.112
8.088
8.104
8.084
8.084
8.088
8.072
8.108
8.112
8.1
8.076
8.084
8.088
8.068
8.056
8.072
8.092
8.088
8.076
8.084
8.084
8.064
8.068
8.088
8.108
8.088
8.076
8.056
8.088
8.08
8.068
8.076
8.076
8.092
8.064
8.056
8.096
8.068
8.072
8.08
8.084
8.08
8.096
8.076
8.084
8.1
8.084
8.064
8.072
8.108
8.12
8.116
8.144
8.192
8.2
8.188
8.236
8.3
8.3
8.24
8.2
8.188
8.176
8.116
8.14
8.136
8.148
8.12
8.072
8.1
8.092
8.092
8.08
8.088
8.084
8.08
8.052
8.068
8.08
8.08
8.072
8.024
7.968
8.012
8.224
8.568
9.188
9.824
10.424
10.988
11.172
11.168
10.552
9.28
8.24
7.804
7.652
7.708
7.832
7.98
8.092
8.16
8.132
8.124
8.124
8.12
8.116
8.12
8.152
8.108
8.1
8.144
8.124
8.136
8.132
8.164
8.176
8.148
8.128
8.16
8.172
8.152
8.172
8.168
8.188
8.196
8.176
8.204
8.224
8.216
8.212
8.228
8.236
8.28
8.256
8.26
8.28
8.312
8.304
8.312
8.364
8.384
8.38
8.4
8.452
8.484
8.508
8.548
8.584
8.656
8.656
8.72
8.764
8.808
8.832
8.88
8.912
8.96
8.984
8.98
8.948
8.952
8.916
8.844
8.776
8.748
8.672
8.588
8.496
8.46
8.408
8.352
8.272
8.268
8.236
8.152
8.132
8.128
8.14
8.132
8.116
8.096
8.12
8.1
8.076
8.044
8.084
8.076
8.088
8.052
8.088
8.08
8.072
8.056
8.072
8.08
8.088
8.092
8.08
8.088
8.084
8.064
8.044
8.056
8.084
8.06
8.048
8.072
8.076
8.024
8.028
8.072
8.06
8.052
8.04
8.048
8.044
8.032
8.028
8.04
8.032
8.028
8.008
8.008
8.044
8.02
8.02
8.004
8
8.024
7.996
8
8.012
8.02
8.012
7.992
8.004
8.024
7.988
7.992
7.992
8.004
7.972
7.976
7.976
8.024
8
7.972
7.976
7.992
7.984
7.964
7.98
7.98
7.96
7.976
7.98
7.996
8.032
8.04
8.068
8.104
8.132
8.188
8.156
8.16
8.14
8.112
8.06
8.028
8.04
8.008
7.968
7.984
7.964
7.992
7.968
7.94
7.992
7.984
7.972
7.948
7.996
7.972
7.96
7.956
7.992
7.972
7.892
7.776
7.84
8.128
8.552
9.28
9.952
10.564
11.028
11.052
10.94
10.016
8.74
7.92
7.688
7.56
7.64
7.728
7.844
7.944
8.012
7.996
8.008
7.996
8.02
8.004
7.98
8.012
8.024
8.004
7.992
8.024
8.028
8.04
8.008
8.008
8.032
8.024
8.024
8.028
8.076
8.084
8.048
8.036
8.092
8.096
8.076
8.084
8.116
8.132
8.112
8.108
8.14
8.168
8.152
8.168
8.18
8.228
8.228
8.232
8.236
8.3
8.336
8.336
8.376
8.432
8.468
8.468
8.52
8.568
8.624
8.648
8.688
8.772
8.788
8.816
8.812
8.824
8.848
8.816
8.78
8.728
8.684
8.608
8.536
8.48
8.42
8.36
8.256
8.252
8.2
8.136
8.068
8.06
8.056
8.032
8.028
8
8.02
8.016
7.988
7.984
8
8.004
8.004
8.012
8.024
8.016
8.012
7.996
8.008
8.012
8.032
8.016
8.012
8.028
8.04
8.004
7.996
8.016
8.028
7.996
8.008
8.044
8.036
8.02
8.012
8.028
8.036
8.028
8.016
8.028
8.04
8.008
8
7.996
8.044
8.024
7.996
7.996
8.008
8.02
7.984
7.968
7.988
8.012
7.992
7.992
8.016
8.016
7.976
7.996
7.988
8.028
7.98
8
8.004
8.024
8.024
7.992
7.992
8.012
8.024
7.96
7.984
8.004
8.028
8.02
8.044
8.092
8.124
8.076
8.144
8.212
8.22
8.172
8.148
8.108
8.112
8.088
8.06
8.056
8.032
8.048
8.036
8.012
8.008
8.024
8.012
8.004
8.02
8.028
8.012
8.004
8.024
8.04
8.02
7.996
7.956
7.888
7.956
8.204
8.664
9.344
9.956
10.54
11.044
11.156
11.06
10.204
8.94
8.076
7.756
7.652
7.76
7.884
7.964
8.068
8.108
8.1
8.104
8.096
8.068
8.096
8.096
8.092
8.068
8.116
8.108
8.104
8.088
8.112
8.136
8.108
8.116
8.132
8.152
8.164
8.148
8.156
8.172
8.152
8.152
8.156
8.212
8.196
8.196
8.192
8.228
8.244
8.22
8.208
8.272
8.304
8.288
8.316
8.324
8.36
8.376
8.388
8.432
8.492
8.512
8.52
8.56
8.608
8.628
8.668
8.708
8.808
8.848
8.86
8.88
8.924
8.968
8.96
8.936
8.952
8.908
8.836
8.748
8.676
8.644
8.568
8.464
8.436
8.396
8.312
8.252
8.212
8.204
8.192
8.148
8.116
8.136
8.116
8.112
8.092
8.088
8.104
8.1
8.092
8.108
8.124
8.084
8.092
8.104
8.108
8.116
8.096
8.112
8.124
8.108
8.116
8.104
8.12
8.116
8.092
8.104
8.12
8.124
8.092
8.112
8.124
8.1
8.112
8.096
8.108
8.124
8.092
8.068
8.092
8.104
8.088
8.088
8.096
8.104
8.096
8.08
8.064
8.088
8.08
8.092
8.056
8.092
8.096
8.068
8.088
8.084
8.084
8.08
8.076
8.088
8.068
8.08
8.048
8.076
8.084
8.068
8.064
8.06
8.08
8.072
8.064
8.036
8.068
8.072
8.084
8.084
8.084
8.04
8.032
8.056
8.068
8.088
8.148
8.164
8.176
8.192
8.24
8.228
8.244
8.228
8.188
8.152
8.144
8.156
8.12
8.076
8.08
8.092
8.084
8.072
8.06
8.072
8.084
8.064
8.028
8.06
8.084
8.036
8.076
8.072
8.084
8.048
7.936
7.956
8.16
8.476
9.004
9.644
10.276
10.844
11.108
11.168
10.78
9.612
8.42
7.832
7.644
7.692
7.812
7.912
8.06
8.176
8.128
8.12
8.108
8.116
8.104
8.092
8.124
8.132
8.124
8.112
8.116
8.124
8.136
8.128
8.104
8.152
8.144
8.148
8.132
8.156
8.152
8.156
8.152
8.16
8.196
8.208
8.208
8.192
8.208
8.196
8.22
8.236
8.272
8.268
8.264
8.284
8.324
8.332
8.344
8.368
8.4
8.44
8.456
8.48
8.528
8.532
8.584
8.62
8.684
8.74
8.76
8.808
8.848
8.88
8.896
8.924
8.972
8.968
8.976
8.936
8.856
8.824
8.74
8.684
8.608
8.56
8.48
8.404
8.348
8.32
8.264
8.236
8.176
8.184
8.168
8.148
8.108
8.112
8.108
8.096
8.076
8.064
8.092
8.096
8.084
8.088
8.104
8.088
8.084
8.088
8.112
8.088
8.092
8.06
8.1
8.088
8.084
8.096
8.096
8.1
8.1
8.072
8.092
8.096
8.096
8.072
8.076
8.096
8.096
8.048
8.044
8.08
8.068
8.06
8.064
8.088
8.064
8.048
8.056
8.06
8.04
8.06
8.048
8.06
8.072
8.048
8.048
8.032
8.052
8.04
8.016
8.036
8.068
8.064
8.016
8.02
8.016
8.044
8.028
8.032
8.056
8.052
8.024
8.02
8.04
8.064
8.032
8
8.02
8.024
8.028
8
8.016
8.032
8.028
8.028
8.032
8.028
8.04
8.028
7.992
8.052
8.02
8.032
8.036
8.048
8.02
8
8.004
8.016
8.02
8.028
8.028
8.028
8.028
8.012
7.984
8.004
8.024
8.012
8.052
8.048
8.088
8.136
8.104
8.108
8.18
8.236
8.22
8.156
8.132
8.128
8.088
8.056
8.068
8.056
8.052
8.048
8.028
7.984
8.004
7.996
8.02
8.02
8.024
8.016
8.024
8.02
8.016
8.004
7.984
7.964
7.864
7.912
8.168
8.508
9.108
9.696
10.316
10.896
11.096
11.084
10.476
9.224
8.156
7.7
7.556
7.652
7.792
7.892
8.012
8.08
8.076
8.028
8.036
8.012
8.024
8.04
8.032
8.044
8.048
8.056
8.02
8.024
8.032
8.072
8.052
8.04
8.06
8.068
8.068
8.048
8.072
8.072
8.1
8.1
8.088
8.096
8.132
8.116
8.108
8.132
8.168
8.16
8.144
8.184
8.196
8.188
8.192
8.244
8.272
8.284
8.276
8.304
8.352
8.372
8.388
8.436
8.484
8.548
8.548
8.584
8.624
8.672
8.696
8.732
8.828
8.828
8.824
8.828
8.86
8.848
8.784
8.724
8.696
8.616
8.56
8.472
8.412
8.368
8.3
8.224
8.18
8.148
8.092
8.056
8.044
8.008
8.012
8.004
7.996
8.016
8.004
7.984
7.972
7.976
8
7.976
7.952
7.964
7.988
7.988
7.964
7.996
8.004
7.98
7.984
7.988
7.98
8
7.976
7.956
7.98
7.96
7.972
7.964
7.984
7.992
7.956
7.932
7.944
7.944
7.952
7.944
7.94
7.952
7.936
7.936
7.944
7.94
7.94
7.928
7.928
7.952
7.916
7.916
7.896
7.928
7.92
7.916
7.92
7.928
7.928
7.916
7.9
7.908
7.916
7.908
7.912
7.924
7.924
7.896
7.876
7.88
7.9
7.896
7.884
7.896
7.9
7.896
7.896
7.88
7.908
7.896
7.904
7.888
7.9
7.884
7.872
7.86
7.88
7.892
7.876
7.876
7.888
7.872
7.864
7.844
7.888
7.9
7.932
7.944
7.972
8.008
8.004
8.052
8.064
8.056
8.008
7.968
7.956
7.948
7.96
7.924
7.896
7.892
7.888
7.856
7.844
7.876
7.888
7.852
7.856
7.864
7.872
7.864
7.84
7.868
7.888
7.828
7.76
7.672
7.772
8.052
8.492
9.204
9.832
10.448
10.892
10.924
10.78
9.856
8.58
7.804
7.568
7.472
7.544
7.656
7.732
7.876
7.936
7.908
7.896
7.912
7.896
7.876
7.864
7.916
7.904
7.912
7.9
7.92
7.912
7.92
7.896
7.932
7.936
7.948
7.932
7.932
7.94
7.956
7.924
7.944
7.98
7.98
7.964
7.988
8.008
8
8.008
8.004
8.028
8.052
8.068
8.08
8.08
8.112
8.116
8.116
8.16
8.216
8.228
8.236
8.288
8.32
8.348
8.372
8.42
8.484
8.528
8.532
8.588
8.64
8.664
8.684
8.692
8.74
8.76
8.72
8.688
8.648
8.592
8.524
8.42
8.38
8.336
8.284
8.2
8.152
8.108
8.064
8.008
7.992
7.984
7.948
7.92
7.928
7.936
7.924
7.9
7.896
7.916
7.916
7.92
7.904
7.932
7.936
7.912
7.892
7.94
7.952
7.932
7.924
7.92
7.936
7.936
7.94
7.94
7.944
7.944
7.944
7.908
7.932
7.944
7.944
7.908
7.944
7.964
7.936
7.912
7.952
7.952
7.932
7.916
7.94
7.956
7.912
7.924
7.94
7.944
7.932
7.892
7.908
7.948
7.944
7.896
7.92
7.924
7.912
7.92
7.904
7.912
7.936
7.912
7.912
7.932
7.92
7.92
7.908
7.932
7.928
7.916
7.896
7.908
7.92
7.924
7.904
7.916
7.92
7.924
7.908
7.916
7.92
7.924
7.92
7.928
7.924
7.92
7.932
7.936
7.928
7.992
8.012
8.032
8.04
8.108
8.136
8.112
8.096
8.092
8.036
8.004
8.008
8.02
7.992
7.964
7.952
7.948
7.944
7.936
7.92
7.964
7.96
7.94
7.92
7.94
7.94
7.952
7.924
7.932
7.92
7.832
7.812
8
8.34
8.864
9.46
10.132
10.72
11.008
11.064
10.7
9.584
8.364
7.788
7.572
7.6
7.728
7.836
7.924
8.028
8.032
7.996
8.004
8.012
8.008
8
7.988
8.004
8.016
8
8.016
8.004
8.032
8.028
8.016
8.028
8.044
8.052
8.028
8.048
8.068
8.076
8.076
8.068
8.072
8.092
8.088
8.088
8.1
8.12
8.104
8.12
8.148
8.172
8.172
8.192
8.2
8.22
8.248
8.252
8.284
8.328
8.348
8.388
8.408
8.428
8.496
8.52
8.568
8.64
8.652
8.724
8.752
8.808
8.832
8.844
8.848
8.872
8.896
8.852
8.776
8.732
8.668
8.592
8.52
8.456
8.4
8.332
8.3
8.204
8.168
8.156
8.112
8.064
8.068
8.056
8.056
8.036
8.02
7.992
7.996
8.012
7.98
8.016
8.016
8.016
7.988
8.02
7.972
7.996
8.004
7.992
8.008
8.008
8.016
8.016
8.008
8.012
8.004
8.016
8.024
8.02
8.004
8
8.016
8.008
7.984
8.004
8.004
7.996
8.004
7.988
7.992
7.992
7.98
7.996
8.02
8.016
7.984
7.992
8
7.984
7.98
7.988
7.988
8.016
7.972
7.984
7.996
7.988
7.98
7.976
8
8
7.996
8
7.96
7.992
7.976
7.976
7.972
7.988
7.992
7.98
7.976
7.968
7.992
7.98
7.988
7.996
7.988
7.976
7.968
7.976
7.972
7.968
7.98
7.988
8.004
7.98
7.984
7.984
7.984
7.992
7.988
7.988
7.992
7.972
7.984
7.972
7.98
7.988
8.016
8.06
8.124
8.1
8.096
8.156
8.192
8.168
8.132
8.112
8.096
8.064
8.016
8.064
8.02
8.028
7.996
7.996
7.996
8
7.972
8
7.984
7.988
7.98
7.988
7.988
8.008
8
7.984
7.928
7.84
7.928
8.184
8.556
9.18
9.796
10.404
10.96
11.08
11.048
10.308
9.04
8.064
7.692
7.56
7.672
7.792
7.92
8.048
8.088
8.076
8.076
8.028
8.024
8.024
8.052
8.064
8.048
8.048
8.068
8.064
8.06
8.064
8.096
8.08
8.052
8.076
8.092
8.108
8.08
8.104
8.084
8.132
8.088
8.144
8.144
8.148
8.132
8.152
8.16
8.172
8.188
8.208
8.228
8.236
8.248
8.252
8.296
8.308
8.316
8.348
8.4
8.428
8.46
8.46
8.504
8.564
8.572
8.628
8.68
8.728
8.764
8.788
8.84
8.876
8.908
8.936
8.916
8.924
8.88
8.828
8.744
8.696
8.62
8.56
8.48
8.42
8.392
8.336
8.244
8.196
8.176
8.12
8.112
8.1
8.096
8.084
8.06
8.036
8.056
8.032
8.044
8.012
8.052
8.044
8.032
8.028
8.004
8.02
8.052
8.032
8.052
8.04
8.056
8.016
8.02
8.032
8.068
8.016
8.012
8.048
8.06
8.02
8.024
8.036
8.048
8.024
8.044
8.044
8.052
8.032
8.016
8.012
8.036
8.012
8.012
7.992
8.02
8.028
8
7.98
8.024
8.036
8.004
7.996
8
8.008
8.012
7.984
8
7.996
8.016
8
8
7.984
7.968
7.984
7.972
7.988
8
7.996
7.988
7.98
7.992
7.964
7.96
7.992
7.988
7.972
7.956
7.98
7.996
7.96
7.96
7.976
8.008
8.008
7.972
7.976
7.984
7.984
7.976
7.98
8
7.996
7.98
7.964
7.968
7.98
7.968
7.972
7.988
7.988
7.992
7.976
7.956
7.98
7.984
7.972
8.008
8.044
8.08
8.056
8.084
8.148
8.172
8.16
8.156
8.112
8.092
8.064
8.032
8.04
8.032
8.016
7.996
7.992
7.996
7.976
7.964
7.952
8
7.98
7.964
7.976
7.992
7.98
7.956
7.94
7.928
7.844
7.808
8.048
8.372
8.948
9.588
10.204
10.796
11.044
11.032
10.564
9.42
8.328
7.756
7.564
7.556
7.7
7.808
7.94
8.036
8.048
8.044
8.004
8.008
8.024
8.028
8.008
8.02
8.048
8.04
8.028
8.024
8.012
8.024
8.016
8.024
8.052
8.048
8.056
8.044
8.04
8.076
8.08
8.08
8.08
8.08
8.108
8.084
8.096
8.112
8.104
8.104
8.124
8.148
8.176
8.144
8.176
8.212
8.216
8.244
8.272
8.3
8.32
8.34
8.356
8.392
8.444
8.484
8.52
8.572
8.616
8.652
8.692
8.712
8.772
8.796
8.8
8.844
8.892
8.824
8.744
8.7
8.672
8.572
8.516
8.456
8.408
8.336
8.244
8.18
8.144
8.108
8.072
8.036
8.024
8.004
8.004
7.968
7.972
7.972
7.96
7.944
7.976
7.964
7.96
7.912
7.908
7.912
7.932
7.912
7.94
7.96
7.932
7.94
7.94
7.956
7.956
7.952
7.944
7.968
7.952
7.952
7.944
7.936
7.944
7.968
7.944
7.928
7.952
7.948
7.916
7.904
7.94
7.948
7.928
7.916
7.9
7.932
7.904
7.876
7.9
7.92
7.908
7.896
7.904
7.912
7.9
7.872
7.892
7.916
7.92
7.884
7.912
7.908
7.908
7.876
7.876
7.876
7.908
7.872
7.848
7.892
7.884
7.872
7.884
7.876
7.896
7.892
7.884
7.884
7.884
7.88
7.848
7.884
7.876
7.896
7.876
7.892
7.876
7.876
7.864
7.864
7.876
7.932
7.94
7.956
7.98
8.012
8.06
8.044
8.064
8.044
8.008
7.968
7.956
7.96
7.928
7.88
7.888
7.896
7.888
7.86
7.88
7.88
7.888
7.844
7.876
7.88
7.896
7.9
7.868
7.876
7.896
7.832
7.72
7.768
8.016
8.38
9
9.668
10.3
10.84
10.956
10.976
10.352
9.096
8.052
7.656
7.508
7.576
7.684
7.78
7.9
7.988
7.988
7.936
7.936
7.956
7.936
7.932
7.94
7.984
7.988
7.948
7.94
7.988
7.98
7.968
7.976
7.992
8.016
7.988
8.008
8.012
8.028
8.028
8.012
8.06
8.076
8.048
8.064
8.08
8.08
8.096
8.1
8.116
8.132
8.132
8.128
8.164
8.18
8.196
8.2
8.256
8.28
8.296
8.332
8.356
8.4
8.444
8.44
8.504
8.568
8.624
8.628
8.668
8.72
8.756
8.776
8.796
8.84
8.844
8.828
8.76
8.724
8.708
8.632
8.536
8.472
8.424
8.356
8.276
8.212
8.192
8.128
8.096
8.056
8.052
8.052
8.016
7.96
7.968
8.004
7.976
7.968
7.956
7.988
7.972
7.968
7.976
8
7.996
7.984
7.988
8.008
8.012
7.968
7.984
7.984
8.016
8
7.964
7.992
7.968
7.976
7.968
7.984
7.984
7.972
7.984
8.004
8.004
7.972
7.972
7.976
8
8
7.952
7.984
7.98
7.968
7.964
7.98
7.996
7.996
7.968
7.972
7.98
7.968
7.98
7.952
7.976
7.968
7.96
7.96
7.972
7.984
7.968
7.952
7.944
7.956
7.98
7.936
7.956
7.964
7.964
7.94
7.944
7.968
7.98
7.968
7.964
7.956
7.976
7.936
7.94
7.96
7.96
7.964
7.952
7.968
7.972
7.964
7.948
7.96
7.964
7.976
7.936
7.96
7.944
7.96
7.936
7.936
7.984
7.976
8
8.064
8.068
8.08
8.096
8.112
8.16
8.128
8.116
8.06
8.04
8.032
8.028
8.004
7.996
7.984
7.956
7.936
7.976
7.972
7.952
7.928
7.964
7.952
7.964
7.952
7.948
7.956
7.964
7.916
7.804
7.808
8.024
8.328
8.824
9.468
10.096
10.66
10.988
11.052
10.764
9.66
8.408
7.784
7.56
7.58
7.7
7.808
7.972
8.064
8.02
8.024
8.02
8.016
7.988
8.004
8.024
8.028
8.028
8.012
8.008
8.024
8.036
8.016
8.032
8.048
8.084
8.044
8.048
8.084
8.088
8.064
8.076
8.096
8.112
8.092
8.104
8.124
8.136
8.16
8.128
8.16
8.196
8.184
8.192
8.224
8.24
8.24
8.236
8.276
8.336
8.36
8.348
8.396
8.428
8.464
8.5
8.54
8.616
8.636
8.688
8.708
8.756
8.812
8.824
8.848
8.912
8.912
8.908
8.856
8.804
8.776
8.704
8.608
8.58
8.504
8.46
8.376
8.292
8.256
8.228
8.16
8.12
8.1
8.096
8.036
8.032
8.024
8.028
8.028
7.996
8.012
8.04
8.028
8.008
8.016
8.016
8.012
8
8.036
8.024
8.04
8.004
8.044
8.016
8.04
8.032
8.008
8.04
8.056
8.012
7.996
8.008
8.004
8.028
8.024
8.04
8.04
8.02
8.004
8.032
8.032
8.024
7.996
8.024
8.04
8.036
7.984
8.016
8.016
8.024
7.988
8.008
8.04
8.008
7.992
7.996
8.004
8.02
7.996
7.988
8
8.008
8.02
8
8
8.012
8.008
7.988
8.012
8
8.012
7.964
7.972
7.988
7.988
7.964
7.984
7.992
7.984
7.96
7.984
8.016
8.008
8
7.992
7.988
7.996
8.012
7.976
7.988
7.98
7.984
7.996
7.984
8.02
7.992
7.988
7.964
7.984
7.996
7.976
7.976
8.032
8.088
8.072
8.064
8.116
8.184
8.208
8.16
8.156
8.116
8.096
8.028
8.044
8.044
8.044
8.02
8
8.004
7.996
7.96
7.98
8
7.996
7.984
7.98
7.992
8.008
7.96
7.956
7.972
7.916
7.84
7.88
8.152
8.512
9.136
9.728
10.368
10.948
11.096
11.024
10.356
9.088
8.088
7.668
7.544
7.652
7.756
7.872
7.968
8.068
8.044
8.024
8.004
8.028
8.032
8.044
8.024
8.04
8.016
8.028
8.004
8.04
8.06
8.052
8.04
8.044
8.076
8.072
8.04
8.064
8.088
8.076
8.08
8.076
8.096
8.08
8.072
8.072
8.088
8.124
8.132
8.112
8.136
8.156
8.18
8.176
8.216
8.232
8.272
8.268
8.296
8.316
8.344
8.348
8.4
8.444
8.504
8.508
8.572
8.632
8.656
8.708
8.72
8.748
8.804
8.832
8.82
8.868
8.86
8.836
8.748
8.684
8.668
8.596
8.512
8.452
8.42
8.348
8.252
8.192
8.188
8.144
8.104
8.04
8.032
8.028
8.004
7.968
7.976
8.012
8.004
7.948
7.972
7.976
7.984
7.948
7.98
7.996
7.984
7.964
7.976
7.996
7.988
7.956
7.972
8.004
7.996
7.976
7.96
7.964
7.96
7.944
7.956
7.98
7.976
7.984
7.932
7.948
7.968
7.98
7.932
7.976
7.98
7.98
7.928
7.928
7.944
7.976
7.936
7.932
7.964
7.948
7.928
7.912
7.92
7.944
7.924
7.904
7.948
7.916
7.932
7.884
7.932
7.928
7.928
7.904
7.912
7.932
7.912
7.872
7.888
7.9
7.9
7.88
7.868
7.908
7.916
7.888
7.864
7.888
7.9
7.884
7.884
7.92
7.984
7.98
7.944
7.992
8.072
8.096
8.056
8.056
8.036
8.008
7.948
7.936
7.932
7.924
7.912
7.888
7.904
7.9
7.856
7.872
7.876
7.884
7.864
7.844
7.868
7.896
7.884
7.852
7.864
7.856
7.78
7.676
7.828
8.132
8.612
9.308
9.948
10.564
10.968
10.968
10.712
9.68
8.452
7.752
7.544
7.488
7.592
7.692
7.788
7.9
7.968
7.932
7.888
7.908
7.932
7.94
7.92
7.932
7.948
7.956
7.924
7.908
7.948
7.948
7.944
7.944
7.972
7.98
7.956
7.944
7.972
8.012
7.992
7.964
8.012
8.008
8.012
7.98
8.016
8.032
8.06
8.032
8.056
8.072
8.112
8.076
8.116
8.136
8.18
8.192
8.196
8.248
8.28
8.268
8.308
8.368
8.416
8.452
8.472
8.544
8.584
8.604
8.632
8.696
8.732
8.748
8.748
8.776
8.784
8.752
8.676
8.64
8.6
8.524
8.432
8.376
8.316
8.244
8.184
8.136
8.116
8.068
8.068
7.988
7.988
7.98
7.972
7.932
7.936
7.964
7.98
7.92
7.944
7.964
7.94
7.932
7.932
7.956
7.964
7.94
7.948
7.956
7.968
7.968
7.948
7.964
7.956
7.98
7.956
7.972
7.98
7.976
7.952
7.972
7.996
7.96
7.968
7.972
7.992
7.972
7.96
7.984
7.984
8.004
7.968
7.98
7.992
8
7.964
7.964
7.984
7.988
7.972
7.948
7.972
7.984
7.964
7.944
7.968
7.98
7.984
7.956
7.956
7.984
7.992
7.96
7.96
7.976
7.996
7.976
7.964
7.98
7.976
7.976
7.964
7.98
7.976
7.984
7.956
7.984
7.98
7.964
7.928
7.96
7.988
8.008
8.004
8.052
8.084
8.1
8.116
8.192
8.204
8.156
8.116
8.084
8.088
8.076
8.032
8.024
8.048
8.036
8.008
7.98
7.972
7.992
7.992
7.96
7.992
8.008
8.016
7.976
7.972
8.004
7.996
7.98
7.884
7.908
8.02
8.288
8.74
9.392
9.996
10.616
11.02
11.132
10.96
9.984
8.68
7.944
7.656
7.632
7.732
7.86
8.004
8.1
8.072
8.052
8.056
8.056
8.04
8.052
8.096
8.084
8.068
8.072
8.068
8.084
8.088
8.064
8.104
8.104
8.104
8.072
8.1
8.14
8.124
8.096
8.144
8.156
8.176
8.128
8.16
8.176
8.18
8.156
8.2
8.224
8.228
8.228
8.232
8.256
8.276
8.308
8.296
8.348
8.392
8.388
8.404
8.452
8.484
8.528
8.54
8.604
8.66
8.68
8.704
8.748
8.808
8.856
8.876
8.9
8.964
8.956
8.924
8.88
8.86
8.792
8.724
8.668
8.62
8.564
8.468
8.392
8.356
8.3
8.26
8.204
8.168
8.148
8.16
8.092
8.072
8.096
8.08
8.068
8.068
8.092
8.084
8.032
8.044
8.052
8.088
8.04
8.04
8.088
8.084
8.076
8.04
8.072
8.08
8.076
8.076
8.088
8.104
8.088
8.06
8.052
8.088
8.084
8.06
8.056
8.088
8.076
8.052
8.048
8.064
8.088
8.076
8.04
8.052
8.064
8.044
8.016
8.036
8.052
8.072
8.044
8.044
8.032
8.044
8.004
8.024
8.056
8.052
8.044
8.052
8.048
8.04
8.02
8
8.024
8.056
8.04
8.02
8.036
8.028
8.02
7.996
8.016
8.012
8.04
8.012
8.016
8.052
8.02
8.008
8.008
8.044
8.048
8.032
8.004
8.04
8.032
8.016
7.988
8.02
8.04
8.044
8.004
8.044
8.032
8.016
7.984
8.004
8.048
8.068
8.064
8.084
8.132
8.132
8.148
8.2
8.216
8.2
8.14
8.124
8.096
8.084
8.052
8.052
8.064
8.036
8.044
7.996
8
8.012
8.012
7.992
7.98
8.04
8.016
7.996
8
8.012
8.02
8
7.92
7.916
8.016
8.26
8.688
9.316
9.936
10.54
11.008
11.156
11.036
10.136
8.836
7.98
7.636
7.608
7.72
7.864
7.996
8.112
8.112
8.084
8.104
8.08
8.06
8.064
8.096
8.084
8.072
8.068
8.088
8.104
8.08
8.064
8.1
8.116
8.12
8.08
8.112
8.132
8.132
8.096
8.116
8.164
8.132
8.144
8.132
8.152
8.152
8.148
8.156
8.208
8.208
8.204
8.192
8.244
8.264
8.264
8.272
8.316
8.34
8.352
8.352
8.412
8.46
8.48
8.508
8.572
8.62
8.636
8.668
8.696
8.78
8.82
8.836
8.868
8.92
8.928
8.896
8.86
8.856
8.824
8.748
8.668
8.612
8.548
8.484
8.376
8.348
8.288
8.236
8.172
8.148
8.152
8.104
8.064
8.06
8.064
8.036
8.016
8.012
8.056
8.048
8.008
7.992
8.024
8.024
8.032
8.012
8.052
8.024
8.032
8.016
8.028
8.068
8.024
8.008
8.016
8.072
8.024
8.016
8.032
8.044
8.036
8.016
8.024
8.052
8.028
8.02
8.004
8.028
8.044
8.028
7.984
8.032
8.024
8.008
8.004
8.016
8.024
8.008
7.984
7.988
8.036
8.02
7.992
7.992
8.02
8.028
7.98
8.016
8
8.004
7.96
7.956
7.968
7.984
7.98
7.96
8.004
8.004
7.98
7.98
7.984
8.004
7.996
7.968
7.98
7.996
7.98
7.96
7.956
8.004
7.992
7.984
7.964
7.988
7.968
7.964
7.956
7.968
7.996
7.984
7.968
7.964
7.98
7.968
7.956
7.968
7.996
7.988
7.98
7.96
7.988
7.976
7.96
7.948
7.98
8
7.94
7.96
7.976
7.988
7.96
7.944
7.956
7.968
7.96
7.972
7.98
8.044
8.056
8.052
8.096
8.144
8.188
8.16
8.116
8.1
8.052
8.032
8.004
8.044
8.036
7.984
7.94
7.996
7.96
7.94
7.908
7.96
7.972
7.964
7.916
7.956
7.956
7.928
7.912
7.928
7.896
7.804
7.828
8.104
8.468
9.128
9.728
10.336
10.932
11.024
10.952
10.224
8.988
8.024
7.636
7.516
7.604
7.74
7.844
7.944
8.016
8.028
7.956
7.956
7.952
8
7.996
7.98
7.964
7.988
8.008
7.968
7.992
8.016
7.996
7.984
7.98
8.012
8.036
8.008
7.992
7.996
8.016
8.028
8.008
8.028
8.064
8.048
8.032
8.068
8.096
8.092
8.056
8.064
8.132
8.128
8.14
8.148
8.2
8.208
8.196
8.184
8.284
8.284
8.312
8.32
8.396
8.444
8.452
8.456
8.536
8.604
8.62
8.636
8.704
8.768
8.788
8.776
8.78
8.812
8.768
8.716
8.652
8.62
8.532
8.472
8.408
8.38
8.312
8.22
8.14
8.148
8.1
8.052
7.988
7.98
7.96
7.944
7.916
7.948
7.96
7.94
7.9
7.884
7.924
7.916
7.9
7.936
7.936
7.944
7.916
7.888
7.904
7.916
7.904
7.908
7.932
7.916
7.928
7.896
7.904
7.936
7.92
7.88
7.924
7.944
7.916
7.892
7.888
7.892
7.904
7.88
7.876
7.908
7.912
7.88
7.864
7.88
7.892
7.876
7.86
7.896
7.888
7.868
7.836
7.848
7.888
7.884
7.864
7.84
7.88
7.872
7.844
7.816
7.868
7.856
7.836
7.816
7.848
7.852
7.844
7.824
7.844
7.852
7.836
7.828
7.844
7.836
7.84
7.816
7.812
7.844
7.84
7.824
7.844
7.848
7.848
7.804
7.812
7.836
7.852
7.848
7.856
7.936
7.936
7.944
7.936
8.02
8.036
8.008
7.936
7.952
7.94
7.908
7.868
7.864
7.872
7.848
7.812
7.832
7.832
7.832
7.804
7.804
7.836
7.848
7.82
7.82
7.852
7.856
7.82
7.8
7.752
7.696
7.744
8.024
8.504
9.228
9.84
10.424
10.888
10.964
10.828
9.868
8.6
7.86
7.596
7.456
7.528
7.688
7.816
7.888
7.928
7.936
7.936
7.9
7.908
7.908
7.944
7.924
7.9
7.948
7.964
7.932
7.928
7.952
7.968
7.956
7.956
7.956
7.972
7.992
7.972
7.972
8.036
8.04
8.012
8.004
8.024
8.048
8.036
8.048
8.08
8.084
8.096
8.064
8.12
8.16
8.148
8.164
8.192
8.216
8.26
8.252
8.296
8.336
8.364
8.384
8.412
8.496
8.548
8.556
8.592
8.652
8.704
8.712
8.772
8.804
8.852
8.84
8.808
8.792
8.792
8.728
8.648
8.612
8.552
8.488
8.384
8.328
8.304
8.232
8.176
8.128
8.136
8.112
8.052
8.036
8.04
8.044
8
7.992
8
8.024
8.008
8
7.992
8.048
8.028
8
8.024
8.064
8.04
8.016
8.02
8.06
8.044
8.024
8.028
8.068
8.064
8.04
8.004
8.04
8.04
8.028
8.036
8.052
8.076
8.064
8.02
8.02
8.052
8.052
8.024
8.04
8.064
8.068
8.004
8.032
8.048
8.052
8.02
8.028
8.032
8.044
8.004
8.032
8.032
8.048
8.028
8.024
8.024
8.06
8.032
7.992
8.044
8.032
8.016
8.012
8.04
8.06
8.052
8.028
8.02
8.048
8.06
8.016
8.024
8.056
8.052
8.032
8.032
8.036
8.036
8.04
8.016
8.04
8.076
8.048
8.016
8.052
8.092
8.068
8.052
8.052
8.068
8.068
8.036
8.06
8.144
8.172
8.16
8.172
8.256
8.296
8.228
8.2
8.176
8.192
8.148
8.128
8.116
8.124
8.104
8.068
8.084
8.08
8.072
8.072
8.076
8.1
8.096
8.048
8.076
8.092
8.116
8.068
8.072
8.028
7.988
7.98
8.212
8.528
9.14
9.732
10.352
10.928
11.188
11.2
10.728
9.5
8.388
7.884
7.696
7.764
7.916
8.02
8.112
8.2
8.184
8.192
8.148
8.164
8.18
8.196
8.168
8.136
8.168
8.188
8.192
8.16
8.192
8.212
8.2
8.18
8.192
8.22
8.2
8.212
8.24
8.248
8.232
8.208
8.248
8.26
8.3
8.264
8.268
8.3
8.32
8.308
8.3
8.328
8.396
8.384
8.376
8.396
8.444
8.448
8.448
8.48
8.568
8.584
8.564
8.608
8.704
8.716
8.72
8.796
8.888
8.924
8.932
8.968
9.02
9.048
9.052
9.032
9.064
9.056
9.008
8.912
8.872
8.792
8.74
8.636
8.576
8.536
8.492
8.392
8.332
8.328
8.308
8.26
8.24
8.248
8.252
8.228
8.172
8.184
8.192
8.192
8.192
8.204
8.212
8.2
8.188
8.192
8.196
8.208
8.192
8.196
8.232
8.22
8.22
8.228
8.204
8.232
8.192
8.204
8.232
8.236
8.2
8.184
8.212
8.232
8.192
8.168
8.196
8.232
8.204
8.172
8.192
8.216
8.2
8.184
8.168
8.216
8.208
8.176
8.172
8.184
8.184
8.168
8.188
8.196
8.192
8.172
8.144
8.168
8.2
8.184
8.156
8.148
8.196
8.172
8.136
8.152
8.196
8.168
8.148
8.16
8.188
8.188
8.16
8.136
8.176
8.184
8.16
8.128
8.16
8.184
8.16
8.14
8.148
8.168
8.164
8.144
8.16
8.188
8.164
8.16
8.132
8.16
8.14
8.144
8.16
8.164
8.188
8.14
8.156
8.172
8.172
8.128
8.152
8.156
8.212
8.16
8.216
8.248
8.272
8.28
8.336
8.352
8.388
8.324
8.244
8.24
8.256
8.208
8.216
8.22
8.204
8.188
8.144
8.148
8.156
8.176
8.152
8.148
8.172
8.18
8.16
8.148
8.156
8.172
8.168
8.064
8.024
8.116
8.372
8.728
9.36
10.012
10.608
11.12
11.256
11.204
10.44
9.12
8.176
7.82
7.736
7.824
7.968
8.068
8.204
8.22
8.2
8.184
8.216
8.192
8.184
8.2
8.216
8.212
8.176
8.18
8.216
8.228
8.22
8.212
8.216
8.24
8.216
8.228
8.232
8.268
8.24
8.228
8.276
8.276
8.248
8.256
8.26
8.296
8.292
8.296
8.344
8.356
8.34
8.336
8.356
8.396
8.408
8.384
8.44
8.472
8.464
8.492
8.504
8.56
8.62
8.624
8.652
8.704
8.752
8.764
8.796
8.868
8.948
8.936
8.96
9.02
9.048
9.024
9
8.98
8.952
8.872
8.776
8.732
8.688
8.604
8.536
8.448
8.432
8.392
8.316
8.272
8.236
8.216
8.192
8.196
8.152
8.176
8.144
8.116
8.144
8.164
8.14
8.116
8.12
8.124
8.156
8.116
8.128
8.144
8.144
8.132
8.116
8.136
8.152
