8.04
8.096
8.06
7.98
8.008
8.076
8.06
8.004
7.968
8.072
8.052
8.048
7.952
8.036
8.06
8.024
7.936
8.048
8.076
8.052
7.916
8.044
8.092
8.064
7.932
8.008
8.048
8.052
8
8
8.064
8.08
8.008
7.98
8.08
8.076
8.044
7.964
8.064
8.052
8.04
7.936
8.036
8.072
8.04
7.948
8.028
8.064
8.052
7.968
8.02
8.072
8.064
7.984
8
8.068
8.076
8.016
7.984
8.056
8.088
8.056
7.988
8.12
8.148
8.152
8.052
8.168
8.196
8.232
8.148
8.216
8.248
8.292
8.16
8.22
8.256
8.216
8.152
8.136
8.172
8.092
8.036
7.976
8.06
8.048
8.032
7.928
8.032
8.044
8.016
7.94
8.012
8.028
8.028
7.956
8.012
7.992
7.948
7.832
7.892
8.42
9.108
9.896
10.66
10.472
9.92
9.552
9.16
8.812
8.38
8.176
8.092
8.224
8.208
8.18
8.036
8.132
8.104
8.1
7.976
8.036
8.092
8.092
8.02
8.044
8.128
8.096
8.052
8.024
8.104
8.108
8.072
8.024
8.116
8.128
8.08
7.996
8.108
8.112
8.112
8.028
8.112
8.128
8.132
8.068
8.116
8.14
8.136
8.092
8.136
8.184
8.156
8.132
8.112
8.22
8.216
8.176
8.144
8.248
8.276
8.276
8.196
8.312
8.308
8.324
8.276
8.372
8.384
8.392
8.352
8.46
8.5
8.504
8.468
8.52
8.604
8.612
8.572
8.592
8.672
8.664
8.648
8.572
8.656
8.596
8.556
8.432
8.464
8.436
8.364
8.228
8.288
8.268
8.212
8.12
8.152
8.168
8.14
8.06
8.072
8.12
8.088
8.052
8.016
8.112
8.068
8.048
8.004
8.104
8.104
8.052
7.984
8.072
8.08
8.048
7.98
8.052
8.092
8.064
8.008
8.072
8.08
8.072
8.016
8.048
8.088
8.068
8.032
8.016
8.092
8.096
8.06
7.996
8.076
8.08
8.064
7.98
8.052
8.044
8.048
7.984
8.064
8.068
8.044
8
8.028
8.048
8.028
7.996
8.012
8.06
8.06
8.032
7.976
8.06
8.016
8.012
7.972
8.072
8.068
8.02
7.972
8.064
8.056
8.016
7.98
8.052
8.076
8.036
7.98
8.008
8.02
8.044
7.988
8.016
8.08
8.052
8.028
7.996
8.072
8.036
8.036
7.972
8.088
8.036
8.008
7.964
8.052
8.06
8.036
7.984
8.036
8.044
8.044
7.992
8.012
8.044
8.036
8
8.004
8.096
8.04
8.012
7.992
8.068
8.064
8.016
7.964
8.064
8.04
8.024
7.98
8.064
8.068
8.052
8.04
8.124
8.156
8.128
8.104
8.184
8.248
8.208
8.192
8.208
8.28
8.236
8.22
8.136
8.204
8.188
8.156
8
8.064
8.06
8.012
7.956
8.02
8.024
7.992
7.936
8.008
8.016
8.008
7.944
7.96
8.028
7.996
7.924
7.876
7.892
7.808
8.056
8.696
9.608
10.484
10.78
10.208
9.804
9.512
9.044
8.56
8.296
8.168
8.192
8.1
8.156
8.164
8.112
8.048
8.056
8.104
8.036
8.024
8.036
8.104
8.044
8.044
8.008
8.12
8.092
8.036
8.008
8.116
8.096
8.056
8.02
8.088
8.092
8.068
8.032
8.076
8.124
8.092
8.064
8.092
8.16
8.108
8.1
8.072
8.176
8.144
8.136
8.096
8.188
8.172
8.168
8.152
8.204
8.22
8.204
8.176
8.256
8.296
8.272
8.212
8.296
8.348
8.344
8.348
8.36
8.468
8.44
8.448
8.444
8.556
8.54
8.552
8.552
8.632
8.62
8.596
8.628
8.696
8.644
8.568
8.528
8.56
8.532
8.436
8.332
8.352
8.336
8.276
8.22
8.168
8.216
8.152
8.108
8.076
8.132
8.092
8.056
8.044
8.12
8.096
8.032
7.976
8.076
8.068
8.044
8.02
8.064
8.092
8.052
8.024
8.044
8.068
8.032
8.02
8.048
8.096
8.08
8.008
8.048
8.104
8.084
8.032
8.028
8.06
8.072
8.032
7.992
8.064
8.064
8.032
8.008
8.068
8.044
8.008
7.968
8.052
8.06
8.024
7.992
8.004
8.068
8.012
8
8.004
8.036
8.028
7.992
7.968
8.04
8.012
7.996
7.964
8.056
8.036
7.98
7.996
8.032
8.04
8.012
7.96
8
8.048
8.016
7.98
7.996
8.04
7.992
7.972
7.988
8.048
8.012
7.992
7.98
8.06
8.024
7.988
7.972
8.02
8.024
7.988
7.968
8.036
8.02
8.008
7.96
8.028
8.024
7.988
7.96
7.992
8.024
7.984
7.964
7.984
8.064
8.02
7.972
7.952
8.036
8.02
7.948
7.94
8
8.016
7.988
7.968
8.02
8.024
7.968
7.972
8
8.032
8.004
7.98
8.008
8.096
8.076
8.048
8.064
8.152
8.164
8.168
8.168
8.244
8.228
8.164
8.172
8.236
8.216
8.144
8.116
8.148
8.116
8.032
7.996
8.02
8.04
8.012
7.976
7.984
8.024
7.976
7.972
7.972
8.016
7.988
7.96
7.96
8.008
7.964
7.872
7.856
7.876
8.2
8.816
9.672
10.572
10.68
10.088
9.628
9.332
8.884
8.44
8.184
8.148
8.176
8.164
8.104
8.08
8.116
8.052
8.044
8
8.068
8.064
8.04
7.988
8.06
8.056
8.044
8.02
8.068
8.08
8.056
8.024
8.064
8.092
8.064
8.048
8.048
8.108
8.096
8.076
8.048
8.124
8.072
8.084
8.06
8.14
8.128
8.092
8.092
8.152
8.164
8.112
8.124
8.168
8.192
8.168
8.16
8.22
8.244
8.248
8.228
8.228
8.268
8.272
8.272
8.288
8.38
8.364
8.356
8.364
8.476
8.472
8.448
8.448
8.532
8.568
8.552
8.552
8.616
8.66
8.636
8.612
8.648
8.624
8.592
8.536
8.48
8.472
8.392
8.332
8.288
8.324
8.232
8.188
8.136
8.188
8.176
8.096
8.06
8.124
8.088
8.052
8.024
8.084
8.072
8.032
8.036
8.064
8.092
8.028
8.016
8.044
8.08
8.06
8.036
8.004
8.084
8.072
8.04
7.996
8.072
8.072
8.032
8.028
8.068
8.056
8.04
7.98
8.052
8.076
8.028
8.012
8.056
8.06
8.04
8.028
8.016
8.064
8.04
8.024
8.024
8.056
8.036
8.024
8.004
8.064
8.052
8.012
7.964
8.064
8.064
8.008
7.976
8.06
8.052
8.028
8.02
8.044
8.072
8.02
8.032
8.012
8.04
8.028
8.016
8.024
8.072
8.064
8
8
8.04
8.056
8.008
7.992
8.072
8.056
8.028
8.016
8.056
8.052
8.04
8.024
8.04
8.076
8.056
8.04
8.036
8.076
8.068
8.032
8.02
8.084
8.04
8.044
8.012
8.08
8.068
8.028
8.02
8.088
8.06
8.04
8.036
8.08
8.104
8.06
8.056
8.044
8.1
8.088
8.044
8.068
8.108
8.072
8.032
8.032
8.104
8.068
8.028
8.028
8.112
8.136
8.104
8.108
8.18
8.22
8.18
8.192
8.252
8.292
8.292
8.28
8.284
8.312
8.284
8.284
8.232
8.264
8.252
8.18
8.124
8.152
8.112
8.088
8.052
8.104
8.092
8.044
8.04
8.1
8.092
8.064
8.04
8.096
8.056
8.056
8.004
7.996
7.996
7.904
8.144
8.732
9.616
10.448
10.732
10.18
9.812
9.472
9
8.56
8.32
8.228
8.212
8.208
8.272
8.188
8.152
8.128
8.164
8.156
8.136
8.104
8.128
8.172
8.152
8.144
8.104
8.152
8.144
8.124
8.128
8.168
8.172
8.128
8.132
8.172
8.184
8.124
8.124
8.176
8.2
8.16
8.156
8.196
8.224
8.212
8.2
8.22
8.244
8.216
8.2
8.22
8.256
8.256
8.26
8.264
8.308
8.328
8.284
8.26
8.332
8.34
8.344
8.32
8.428
8.412
8.416
8.404
8.476
8.496
8.492
8.52
8.556
8.604
8.604
8.608
8.608
8.684
8.692
8.676
8.68
8.744
8.72
8.66
8.62
8.652
8.62
8.528
8.48
8.492
8.424
8.364
8.312
8.304
8.304
8.244
8.22
8.188
8.216
8.192
8.164
8.132
8.172
8.168
8.152
8.128
8.16
8.16
8.128
8.132
8.176
8.176
8.112
8.112
8.152
8.16
8.124
8.128
8.136
8.152
8.132
8.128
8.116
8.14
8.152
8.124
8.124
8.148
8.124
8.1
8.104
8.148
8.144
8.084
8.096
8.164
8.128
8.088
8.064
8.124
8.144
8.12
8.116
8.148
8.12
8.116
8.128
8.132
8.168
8.144
8.1
8.108
8.156
8.144
8.08
8.1
8.136
8.14
8.104
8.12
8.156
8.148
8.128
8.128
8.164
8.148
8.128
8.136
8.16
8.16
8.132
8.132
8.148
8.176
8.136
8.152
8.132
8.168
8.144
8.116
8.112
8.176
8.144
8.104
8.116
8.18
8.152
8.12
8.108
8.164
8.16
8.148
8.124
8.152
8.144
8.144
8.12
8.12
8.14
8.116
8.128
8.096
8.144
8.136
8.092
8.1
8.196
8.164
8.108
8.14
8.164
8.168
8.132
8.116
8.156
8.152
8.12
8.136
8.132
8.152
8.14
8.164
8.176
8.208
8.212
8.2
8.224
8.312
8.316
8.316
8.296
8.356
8.352
8.332
8.312
8.372
8.288
8.264
8.276
8.244
8.152
8.108
8.144
8.176
8.136
8.108
8.092
8.088
8.124
8.116
8.076
8.096
8.084
8.116
8.076
8.072
8.08
8.008
7.996
7.94
8.244
8.876
9.696
10.564
10.876
10.328
9.84
9.556
9.1
8.7
8.344
8.256
8.236
8.288
8.268
8.224
8.212
8.216
8.156
8.136
8.144
8.192
8.172
8.12
8.16
8.192
8.192
8.136
8.172
8.188
8.168
8.156
8.164
8.172
8.18
8.136
8.172
8.204
8.22
8.184
8.156
8.192
8.212
8.236
8.168
8.216
8.248
8.256
8.216
8.272
8.252
8.272
8.248
8.292
8.292
8.308
8.276
8.32
8.336
8.364
8.352
8.34
8.384
8.412
8.436
8.404
8.436
8.46
8.532
8.472
8.552
8.584
8.584
8.572
8.66
8.704
8.708
8.696
8.716
8.772
8.772
8.732
8.74
8.724
8.716
8.664
8.608
8.588
8.56
8.488
8.4
8.404
8.372
8.328
8.244
8.288
8.288
8.26
8.168
8.184
8.208
8.196
8.148
8.18
8.18
8.18
8.176
8.184
8.168
8.184
8.172
8.152
8.156
8.184
8.18
8.132
8.192
8.208
8.184
8.116
8.136
8.176
8.168
8.112
8.148
8.172
8.16
8.112
8.156
8.152
8.172
8.116
8.132
8.144
8.188
8.1
8.064
8.128
8.176
8.136
8.1
8.14
8.16
8.14
8.108
8.148
8.156
8.128
8.08
8.152
8.16
8.176
8.084
8.144
8.144
8.152
8.124
8.132
8.18
8.188
8.136
8.124
8.152
8.176
8.124
8.112
8.18
8.188
8.144
8.116
8.188
8.192
8.168
8.124
8.156
8.16
8.188
8.136
8.172
8.184
8.188
8.136
8.164
8.172
8.188
8.132
8.116
8.184
8.2
8.14
8.124
8.196
8.216
8.156
8.104
8.172
8.188
8.144
8.108
8.192
8.164
8.188
8.136
8.192
8.172
8.188
8.144
8.16
8.18
8.196
8.14
8.124
8.188
8.22
8.176
8.132
8.164
8.18
8.168
8.12
8.16
8.212
8.2
8.168
8.248
8.288
8.288
8.26
8.328
8.356
8.384
8.292
8.312
8.36
8.36
8.336
8.276
8.308
8.328
8.26
8.148
8.176
8.18
8.108
8.044
8.136
8.136
8.092
8.032
8.128
8.128
8.096
8.032
8.104
8.112
8.1
8.06
8.008
8.02
7.964
7.928
8.408
9.216
10.14
10.864
10.616
10.12
9.76
9.32
8.796
8.488
8.304
8.284
8.232
8.292
8.256
8.212
8.16
8.168
8.184
8.164
8.116
8.136
8.168
8.184
8.14
8.088
8.176
8.18
8.152
8.12
8.192
8.192
8.156
8.108
8.192
8.196
8.16
8.136
8.216
8.212
8.184
8.136
8.192
8.236
8.204
8.184
8.172
8.22
8.24
8.216
8.196
8.28
8.288
8.264
8.228
8.32
8.308
8.3
8.244
8.356
8.36
8.336
8.284
8.388
8.412
8.432
8.392
8.432
8.488
8.492
8.496
8.516
8.572
8.58
8.576
8.588
8.68
8.696
8.68
8.644
8.748
8.744
8.672
8.608
8.664
8.624
8.56
8.476
8.492
8.456
8.38
8.308
8.312
8.3
8.248
8.196
8.188
8.22
8.176
8.128
8.088
8.176
8.184
8.12
8.076
8.164
8.152
8.104
8.06
8.156
8.136
8.096
8.064
8.144
8.116
8.108
8.068
8.092
8.12
8.096
8.068
8.028
8.096
8.08
8.072
8.02
8.096
8.092
8.056
8.032
8.084
8.1
8.028
8.012
8.096
8.096
8.06
8.008
8.08
8.088
8.072
8.024
8.04
8.076
8.056
8.048
8.044
8.08
8.06
8.032
8.016
8.084
8.076
8.036
7.988
8.072
8.08
8.064
8.004
8.076
8.068
8.04
8.008
8.068
8.096
8.06
8.04
8.048
8.088
8.052
8.032
8.016
8.096
8.052
8.012
7.98
8.088
8.076
8.04
7.976
8.08
8.068
8.024
7.992
8.06
8.068
8.044
7.996
8.06
8.06
8.04
8.008
8.048
8.06
8.044
7.996
8.008
8.088
8.06
8.024
7.996
8.08
8.04
8.024
7.988
8.104
8.072
8.036
7.992
8.088
8.092
8.04
8.008
8.068
8.084
8.064
7.992
8.036
8.08
8.068
8.024
8.004
8.084
8.056
8.044
8.064
8.164
8.144
8.128
8.104
8.236
8.26
8.224
8.192
8.268
8.264
8.24
8.22
8.256
8.2
8.188
8.148
8.148
8.1
8.076
8.028
8.024
8.084
8.032
7.996
7.976
8.06
8.048
7.992
7.964
8.064
8.032
8.02
7.952
8.048
7.972
7.912
7.852
7.98
8.476
9.216
10.056
10.764
10.456
9.924
9.532
9.124
8.756
8.344
8.184
8.148
8.224
8.204
8.148
8.08
8.136
8.096
8.064
8.028
8.088
8.08
8.036
8.008
8.072
8.116
8.072
8.048
8.052
8.084
8.064
8.028
8.016
8.116
8.076
8.052
8.028
8.132
8.096
8.06
8.036
8.14
8.132
8.104
8.064
8.16
8.156
8.136
8.072
8.16
8.196
8.148
8.12
8.156
8.228
8.188
8.192
8.172
8.256
8.24
8.22
8.192
8.316
8.308
8.276
8.232
8.364
8.38
8.336
8.336
8.42
8.468
8.42
8.448
8.5
8.556
8.552
8.516
8.548
8.652
8.616
8.584
8.56
8.632
8.56
8.504
8.416
8.456
8.396
8.3
8.26
8.288
8.248
8.168
8.116
8.184
8.14
8.092
8.068
8.076
8.104
8.056
8.028
8.04
8.116
8.08
8.02
8.008
8.088
8.036
8.036
8.012
8.104
8.052
8.02
7.992
8.084
8.072
8
8.008
8.068
8.076
8.016
8.008
8.032
8.064
8.04
8.024
7.984
8.04
8.016
7.984
7.984
8.08
8
7.992
7.956
8.068
8.032
7.992
7.98
8.064
8.024
8.004
7.992
8.052
8.024
8
7.968
7.98
8.044
7.992
7.968
7.984
8.06
8
7.956
7.94
8.052
8.032
7.952
7.972
8.04
8.036
7.988
7.972
8.044
7.988
7.98
7.956
8.032
8.064
7.98
7.94
7.984
8.036
7.996
7.972
7.968
8.036
8
7.96
7.936
8.028
8
7.992
7.968
8.04
8.02
7.98
7.94
8.024
8.02
7.98
7.968
8
8.048
8.008
7.976
7.98
8.028
7.992
7.968
7.984
8.044
8
7.98
7.968
8.072
8.004
7.984
7.952
8.072
8.036
7.988
7.972
8.052
8.016
7.988
7.964
8.016
8.036
8.004
8.008
8.044
8.12
8.072
8.04
8.104
8.216
8.192
8.192
8.16
8.276
8.224
8.184
8.16
8.292
8.208
8.16
8.132
8.18
8.1
7.996
7.992
8.02
8.04
7.992
7.952
7.996
8.056
8
7.952
7.96
8.048
8.012
7.984
7.956
8.044
7.948
7.868
7.852
7.868
8.184
8.82
9.664
10.576
10.636
10.048
9.624
9.352
8.948
8.456
8.124
8.12
8.204
8.168
8.132
8.088
8.144
8.084
8.02
8.032
8.096
8.052
7.996
8.012
8.108
8.056
8.008
8.004
8.096
8.08
8.028
8.028
8.072
8.092
8.04
8.04
8.048
8.112
8.064
8.052
8.044
8.156
8.104
8.06
8.06
8.164
8.14
8.108
8.084
8.192
8.172
8.124
8.132
8.192
8.184
8.164
8.144
8.208
8.24
8.216
8.2
8.244
8.308
8.264
8.252
8.256
8.392
8.36
8.332
8.356
8.48
8.44
8.424
8.464
8.548
8.54
8.5
8.512
8.592
8.62
8.596
8.576
8.628
8.644
8.552
8.504
8.452
8.46
8.376
8.312
8.288
8.332
8.248
8.156
8.144
8.224
8.124
8.068
8.048
8.12
8.064
8.028
8.02
8.08
8.06
8.008
8.004
8.036
8.064
8.036
8.036
8.024
8.096
8.004
7.996
8
8.1
8.028
8
7.984
8.108
8.028
8.008
7.98
8.068
8.036
7.996
7.984
8.04
8.02
7.98
7.976
8.012
8.052
7.996
7.936
8.016
8.068
8.012
7.952
7.952
8.068
8.036
7.988
7.972
8.064
8.012
7.984
7.976
8.04
8
7.98
7.972
8.02
8.016
7.964
7.948
7.984
8.044
7.992
7.964
7.968
8.052
8.004
7.98
7.964
8.04
8.004
7.956
7.964
8.052
8
7.948
7.964
8.06
8.016
7.964
7.944
8.024
8.036
7.976
7.956
7.98
8.044
8
7.972
7.98
8.052
7.968
7.956
7.94
8.064
8.024
7.96
7.972
8.076
8.008
7.98
7.96
8.06
8.044
8.004
7.988
8.02
8.048
8.004
7.96
8.024
8.064
8
7.98
7.98
8.084
8
7.968
8.004
8.068
8.008
7.952
7.992
8.124
8.06
8.06
8.084
8.184
8.164
8.136
8.176
8.24
8.248
8.168
8.192
8.188
8.292
8.18
8.144
8.14
8.212
8.092
7.996
8
8.084
8.004
7.98
7.964
8.052
8.004
7.976
7.948
8.048
8.036
7.948
7.98
8.008
8.028
7.928
7.88
7.872
7.88
8.268
8.98
9.872
10.784
10.62
10.004
9.644
9.412
8.892
8.428
8.18
8.252
8.192
8.156
8.104
8.164
8.112
8.028
8.008
8.068
8.104
8.036
8.016
8.06
8.12
8.024
8.02
8.044
8.116
8.052
8.004
8.02
8.124
8.076
8.044
8.056
8.136
8.104
8.036
8.048
8.12
8.132
8.048
8.068
8.144
8.168
8.1
8.096
8.12
8.172
8.148
8.108
8.128
8.236
8.184
8.156
8.168
8.272
8.208
8.172
8.204
8.312
8.28
8.26
8.28
8.364
8.38
8.356
8.36
8.424
8.484
8.432
8.428
8.48
8.564
8.54
8.552
8.576
8.7
8.624
8.596
8.628
8.724
8.6
8.54
8.488
8.544
8.468
8.344
8.308
8.332
8.296
8.224
8.176
8.16
8.18
8.076
8.056
8.068
8.136
8.052
8.004
8.044
8.152
8.06
8.004
8.02
8.124
8.068
8.008
8.012
8.092
8.044
8.016
8.004
8.068
8.06
8.012
8.036
8.04
8.088
8.024
8
8.04
8.084
8.012
8
8.008
8.096
8.036
8.004
8.008
8.1
8.016
8.012
8.02
8.116
8.044
7.988
7.996
8.06
8.06
7.996
7.996
8.024
8.064
8.012
7.984
8.02
8.104
8.028
7.992
8.004
8.1
8.02
7.996
8.02
8.096
8.052
7.992
8
8.08
8.068
7.988
7.98
8.024
8.06
7.996
7.972
8.012
8.06
8.004
7.972
8.02
8.06
8.004
7.976
8.02
8.092
8.016
7.968
8
8.104
8.024
7.972
8
8.06
8.024
7.992
8.004
8.064
8.052
7.984
8
8.036
8.088
7.98
7.992
8
8.1
8.024
7.992
7.996
8.108
8.032
7.996
8.02
8.088
8.012
8
8.028
8.068
8.04
7.976
7.984
8.04
8.048
7.988
7.976
8.044
8.116
8.088
8.056
8.128
8.228
8.164
8.16
8.18
8.292
8.216
8.176
8.228
8.288
8.216
8.176
8.164
8.212
8.184
8.06
8.032
8.048
8.092
7.988
7.98
7.996
8.068
7.98
7.972
8
8.076
7.952
7.948
7.988
8.092
7.952
7.9
7.888
7.952
7.896
8.308
9.024
9.984
10.724
10.484
9.916
9.604
9.26
8.736
8.36
8.208
8.248
8.136
8.124
8.112
8.196
8.084
8.016
8.036
8.144
8.036
8.012
8.028
8.132
8.064
8.024
8.052
8.128
8.072
8.004
8.032
8.088
8.108
8.036
8.028
8.06
8.116
8.052
8.028
8.068
8.148
8.096
8.064
8.1
8.192
8.084
8.076
8.112
8.212
8.16
8.108
8.12
8.204
8.176
8.128
8.148
8.2
8.24
8.188
8.18
8.228
8.276
8.22
8.228
8.268
8.396
8.296
8.312
8.364
8.476
8.4
8.384
8.412
8.536
8.516
8.496
8.54
8.608
8.612
8.564
8.576
8.62
8.632
8.556
8.508
8.52
8.532
8.4
8.324
8.336
8.384
8.22
8.18
8.168
8.256
8.136
8.064
8.072
8.136
8.056
8.028
8.024
8.096
8.06
8
8.008
8.064
8.064
8
7.976
8.032
8.108
8.012
7.984
8.024
8.104
8.008
7.972
8
8.096
8.016
7.976
8.004
8.084
8.02
7.96
7.972
8.052
8.064
7.976
7.984
8.028
8.064
7.988
7.956
7.992
8.08
7.968
7.96
8
8.076
7.964
7.972
8.004
8.084
7.98
7.94
7.972
8.068
8.012
7.952
7.964
8.02
8.004
7.96
7.976
7.996
8.04
7.964
7.94
7.988
8.028
7.96
7.904
7.98
8.076
7.956
7.936
7.96
8.044
7.972
7.94
7.96
8.028
7.996
7.944
7.932
8.02
7.996
7.916
7.952
8.004
8.028
7.968
7.944
7.988
8.064
7.956
7.924
7.972
8.052
7.972
7.952
7.96
8.044
7.968
7.932
7.984
8.028
7.984
7.924
7.98
8.008
8.028
7.952
7.988
8
8.028
7.964
7.932
7.96
8.052
7.952
7.932
8
8.056
7.932
7.924
7.988
8.088
8.016
7.988
8.056
8.144
8.132
8.104
8.14
8.196
8.204
8.144
8.14
8.184
8.244
8.132
8.096
8.124
8.188
8.032
7.976
8.004
8.096
7.952
7.916
7.948
8.036
7.976
7.924
7.944
7.988
7.948
7.924
7.928
7.976
7.972
7.856
7.856
7.884
7.872
8.088
8.748
9.632
10.556
10.496
9.956
9.572
9.356
8.796
8.376
8.148
8.18
8.124
8.08
8.076
8.12
8.036
7.98
7.98
8.048
8.056
7.956
7.98
8.032
8.076
7.98
7.96
7.992
8.076
7.968
7.96
8
8.08
7.988
7.972
8.024
8.112
8.016
7.948
8.02
8.092
8.068
8.004
8.02
8.088
8.112
8.016
8.068
8.092
8.112
8.064
8.092
8.12
8.184
8.088
8.076
8.144
8.228
8.152
8.124
8.156
8.252
8.176
8.172
8.232
8.296
8.296
8.28
8.316
8.384
8.412
8.328
8.38
8.44
8.512
8.436
8.456
8.532
8.636
8.524
8.512
8.556
8.648
8.524
8.488
8.468
8.516
8.392
8.32
8.292
8.296
8.236
8.124
8.128
8.16
8.152
8.032
7.98
8.052
8.112
8.008
7.976
8.024
8.06
7.98
7.964
8.024
8.04
7.984
7.928
7.984
8.048
7.976
7.904
7.976
7.996
7.988
7.912
7.936
7.976
8.024
7.948
7.952
7.996
8.04
7.936
7.964
8
8.048
7.948
7.936
7.98
8.072
7.952
7.908
7.956
8.032
7.96
7.884
7.936
7.98
8
7.928
7.904
7.976
8
7.888
7.92
7.956
7.996
7.896
7.896
7.96
8.012
7.924
7.888
7.936
7.992
7.932
7.868
7.948
7.98
7.932
7.904
7.924
7.984
7.972
7.872
7.928
8
8.016
7.908
7.916
7.944
8.004
7.936
7.888
7.96
7.98
7.928
7.904
7.964
8.008
7.908
7.92
7.948
8.04
7.948
7.892
7.948
8.004
7.996
7.888
7.916
7.984
7.996
7.912
7.9
7.968
8
7.92
7.9
7.984
8.028
7.932
7.908
7.964
8.016
7.968
7.896
7.952
8.04
8.008
7.98
8.024
8.092
8.116
8.06
8.096
8.192
8.224
8.144
8.136
8.228
8.236
8.164
8.108
8.176
8.208
8.14
8.052
8.016
8.052
7.984
7.948
7.964
8.036
7.992
7.944
7.948
7.992
7.996
7.916
7.9
7.996
8.012
7.912
7.888
7.904
7.956
7.812
8.036
8.712
9.612
10.408
10.696
10.192
9.804
9.48
9.008
8.58
8.324
8.136
8.096
8.116
8.18
8.144
8.064
8.012
8.072
8.112
8.024
8.004
8.048
8.092
8.02
7.996
8.06
8.108
8.02
7.98
8.044
8.096
8.04
7.988
8.056
8.128
8.092
8.008
8.072
8.112
8.108
8.04
8.08
8.14
8.152
8.044
8.068
8.14
8.196
8.12
8.072
8.148
8.208
8.18
8.112
8.18
8.224
8.212
8.136
8.2
8.284
8.28
8.228
8.264
8.336
8.328
8.28
8.328
8.424
8.464
8.4
8.428
8.488
8.572
8.52
8.52
8.596
8.664
8.6
8.596
8.652
8.672
8.636
8.552
8.572
8.584
8.52
8.392
8.368
8.392
8.348
8.244
8.208
8.224
8.22
8.092
8.08
8.104
8.156
8.068
8.04
8.08
8.124
8.036
7.972
8.044
8.104
8.036
7.98
8.024
8.112
8.072
8.004
8.032
8.088
8.068
8.016
8.024
8.052
8.104
8
8.028
8.08
8.1
8.032
8
8.056
8.104
8.044
7.972
8.056
8.104
8.068
7.988
8.016
8.076
8.056
7.988
8.004
8.088
8.068
7.992
8.004
8.072
8.064
8
7.988
8.048
8.1
8.028
7.968
8.016
8.064
8.008
7.984
8.028
8.092
8.052
7.976
8.012
8.068
8.056
7.952
8.024
8.06
8.056
7.968
7.992
8.048
8.084
8.02
7.972
8.044
8.092
8.016
7.956
8.04
8.08
8.052
7.976
8.064
8.096
8.052
7.996
8.016
8.088
8.072
7.996
8.024
8.08
8.06
8.008
8.016
8.064
8.072
8.008
8.012
8.076
8.08
8
7.98
8.072
8.112
8.008
8
8.056
8.104
8.032
7.992
8.036
8.116
8.136
8.072
8.124
8.192
8.216
8.132
8.216
8.28
8.284
8.208
8.22
8.288
8.332
8.236
8.16
8.228
8.26
8.16
8.024
8.08
8.096
8.052
8.008
8.032
8.084
8.068
8.008
8.02
8.084
8.076
7.984
7.98
8.068
8.024
7.944
7.924
7.94
7.936
8.36
9.044
10.004
10.868
10.648
10.02
9.724
9.416
8.92
8.424
8.24
8.292
8.268
8.152
8.184
8.196
8.164
8.072
8.076
8.124
8.152
8.008
8.024
8.12
8.144
8.044
7.996
8.104
8.172
8.076
8
8.096
8.168
8.12
8.02
8.104
8.156
8.144
8.036
8.072
8.148
8.172
8.044
8.096
8.184
8.22
8.088
8.076
8.208
8.268
8.128
8.092
8.196
8.28
8.204
8.124
8.22
8.32
8.248
8.188
8.264
8.36
8.344
8.22
8.3
8.428
8.464
8.324
8.376
8.496
8.584
8.404
8.436
8.584
8.648
8.56
8.528
8.652
8.732
8.632
8.552
8.676
8.732
8.616
8.5
8.524
8.572
8.528
8.288
8.3
8.352
8.344
8.164
8.164
8.22
8.276
8.072
8.06
8.136
8.2
8.032
8.02
8.1
8.152
8.024
7.964
8.064
8.136
8.08
7.976
8.032
8.124
8.108
7.968
8.024
8.132
8.128
7.98
8.036
8.132
8.18
7.992
7.992
8.1
8.156
8.008
7.996
8.068
8.152
8.048
7.976
8.044
8.112
8.068
7.952
8.044
8.076
8.092
7.944
8.028
8.096
8.14
7.96
7.968
8.076
8.132
7.968
7.94
8.048
8.108
7.984
7.956
8.036
8.08
8.004
7.932
8.036
8.068
8.044
7.912
8
8.06
8.108
7.924
7.984
8.056
8.088
7.944
7.968
8.056
8.1
7.96
7.96
8.052
8.096
7.984
7.972
8.04
8.076
8.008
7.952
8.036
8.112
8.064
7.952
8.012
8.088
8.104
7.936
8.012
8.096
8.128
7.96
7.984
8.104
8.14
7.96
7.96
8.076
8.124
7.996
7.964
8.056
8.104
8.048
7.944
8.004
8.068
8.06
7.944
8.004
8.1
8.124
8
8.088
8.184
8.224
8.084
8.124
8.256
8.324
8.168
8.16
8.268
8.3
8.216
8.152
8.208
8.24
8.184
8.072
8.084
8.096
8.048
7.94
7.984
8.076
8.068
7.904
7.968
8.044
8.116
7.94
7.964
8.044
8.104
7.964
7.904
7.96
7.968
7.832
8.188
8.96
9.868
10.628
10.504
10.04
9.72
9.36
8.784
8.452
8.324
8.292
8.148
8.16
8.216
8.216
8.056
8.032
8.136
8.16
8.024
8.004
8.096
8.148
8.04
8.048
8.088
8.128
8.08
7.992
8.088
8.112
8.104
8.008
8.08
8.016
8.164
8.008
8.064
8.156
8.2
8.04
8.064
8.152
8.216
8.064
8.072
8.164
8.228
8.132
8.124
8.18
8.236
8.216
8.116
8.088
8.256
8.272
8.16
8.256
8.396
8.352
8.22
8.252
8.388
8.32
8.32
8.348
8.464
8.532
8.432
8.452
8.54
8.616
8.552
8.528
8.616
8.712
8.656
8.596
8.696
8.76
8.712
8.564
8.572
8.628
8.612
8.416
8.384
8.46
8.44
8.236
8.236
8.276
8.276
8.144
8.096
8.176
8.192
8.104
8.04
8.136
8.172
8.136
8.036
8.116
8.148
8.14
8.028
8.084
8.176
8.156
8.008
8.072
8.176
8.204
8.04
8.056
8.168
8.196
8.08
8.056
8.148
8.168
8.12
8.048
8.128
8.172
8.144
8.06
8.104
8.148
8.144
8.048
8.076
8.188
8.204
8.024
8.08
8.172
8.204
8.056
8.06
8.148
8.176
8.064
8.064
8.12
8.152
8.084
8
8.112
8.16
8.132
8
8.104
8.148
8.172
7.996
8.068
8.168
8.184
8.012
8.052
8.152
8.176
8.036
8.052
8.148
8.172
8.072
8.024
8.152
8.164
8.088
8.032
8.112
8.192
8.164
8.052
8.112
8.156
8.148
8.04
8.088
8.18
8.204
8.052
8.096
8.2
8.208
8.044
8.064
8.144
8.18
8.072
8.056
8.152
8.172
8.124
8.052
8.144
8.16
8.16
8.016
8.124
8.18
8.164
8.024
8.08
8.168
8.2
8.02
8.072
8.192
8.232
8.128
8.132
8.268
8.32
8.236
8.212
8.352
8.384
8.308
8.236
8.348
8.396
8.368
8.2
8.28
8.336
8.324
8.1
8.1
8.176
8.232
8.056
8.084
8.176
8.196
8.068
8.056
8.128
8.168
8.064
8.052
8.144
8.168
8.068
7.956
8.02
8.04
8.076
8.428
9.228
10.168
10.828
10.384
9.904
9.688
9.336
8.752
8.428
8.396
8.392
8.264
8.212
8.304
8.284
8.144
8.092
8.184
8.212
8.16
8.064
8.136
8.192
8.18
8.072
8.128
8.208
8.192
8.056
8.136
8.22
8.232
8.088
8.076
8.192
8.248
8.116
8.12
8.212
8.224
8.156
8.092
8.2
8.232
8.18
8.108
8.228
8.284
8.252
8.144
8.224
8.312
8.308
8.176
8.24
8.34
8.368
8.24
8.284
8.372
8.412
8.296
8.316
8.444
8.488
8.42
8.38
8.528
8.568
8.556
8.508
8.604
8.688
8.7
8.58
8.656
8.748
8.796
8.668
8.704
8.78
8.784
8.628
8.62
8.66
8.64
8.488
8.404
8.488
8.456
8.324
8.232
8.316
8.3
8.252
8.152
8.224
8.244
8.228
8.08
8.168
8.224
8.22
8.072
8.108
8.2
8.22
8.052
8.088
8.18
8.224
8.1
8.092
8.164
8.172
8.112
8.052
8.136
8.172
8.12
8.06
8.144
8.172
8.18
8.032
8.128
8.224
8.204
8.056
8.088
8.18
8.2
8.08
8.076
8.148
8.164
8.072
8.056
8.184
8.148
8.072
8.056
8.164
8.132
8.136
8.028
8.124
8.184
8.18
8.008
8.076
8.156
8.176
8.044
8.084
8.192
8.168
8.028
8.036
8.14
8.148
8.068
8.048
8.152
8.148
8.088
8.028
8.116
8.148
8.132
8.036
8.1
8.172
8.144
8.016
8.08
8.124
8.14
8.02
8.076
8.148
8.148
8.008
8.032
8.136
8.16
8.06
8.024
8.112
8.144
8.076
7.992
8.068
8.116
8.096
8.028
8.084
8.14
8.128
8
8.048
8.152
8.144
8.008
8.06
8.148
8.152
8.032
8.068
8.188
8.188
8.148
8.124
8.232
8.276
8.252
8.212
8.3
8.332
8.304
8.216
8.292
8.316
8.332
8.184
8.24
8.232
8.172
8.036
8.068
8.12
8.108
8.008
8.016
8.128
8.112
8.004
8
8.092
8.108
8.068
8.008
8.064
8.048
8.012
7.864
7.928
8.412
9.18
9.896
10.804
10.708
10.128
9.672
9.4
9.056
8.636
8.28
8.236
8.324
8.312
8.184
8.12
8.184
8.188
8.128
7.996
8.092
8.128
8.144
8.048
8.12
8.164
8.164
8.036
8.116
8.184
8.176
8.06
8.096
8.204
8.188
8.076
8.068
8.192
8.172
8.12
8.096
8.196
8.2
8.168
8.112
8.224
8.204
8.208
8.108
8.192
8.26
8.256
8.152
8.204
8.272
8.3
8.204
8.228
8.324
8.328
8.216
8.26
8.376
8.4
8.356
8.352
8.448
8.492
8.484
8.416
8.512
8.58
8.608
8.516
8.612
8.684
8.736
8.624
8.716
8.772
8.772
8.648
8.652
8.724
8.676
8.572
8.512
8.544
8.524
8.384
8.312
8.368
8.336
8.28
8.168
8.2
8.22
8.188
8.084
8.156
8.2
8.18
8.02
8.08
8.16
8.164
8.06
8.096
8.172
8.168
8.056
8.052
8.164
8.172
8.108
8.052
8.136
8.156
8.148
8.032
8.144
8.14
8.156
8.028
8.124
8.152
8.16
8.024
8.084
8.148
8.14
8.044
8.072
8.136
8.116
8.048
8.056
8.128
8.124
8.08
8.04
8.112
8.132
8.112
8
8.08
8.12
8.156
8.012
8.06
8.112
8.116
8.012
8.044
8.104
8.076
7.988
8.012
8.12
8.096
7.996
7.988
8.108
8.088
8.064
7.976
8.092
8.108
8.092
7.984
8.072
8.12
8.1
7.988
8.056
8.128
8.108
7.976
8.036
8.136
8.12
8.012
8.016
8.084
8.096
8.02
8.012
8.104
8.1
8.048
7.992
8.068
8.08
8.068
7.972
8.06
8.104
8.116
7.988
8.1
8.136
8.088
7.96
8.04
8.132
8.116
8.02
8.016
8.128
8.132
8.1
8.12
8.24
8.196
8.204
8.144
8.292
8.324
8.296
8.184
8.296
8.364
8.352
8.168
8.232
8.284
8.216
8.02
8.068
8.132
8.084
7.992
8.044
8.132
8.092
7.992
7.96
8.08
8.104
8.056
7.964
8.044
8.084
8.044
7.892
7.912
7.936
8.4
9.092
10.088
10.992
10.888
10.132
9.756
9.48
8.952
8.452
8.2
8.252
8.264
8.216
8.18
8.224
8.18
8.1
8.036
8.124
8.112
8.088
7.996
8.1
8.144
8.136
8.012
8.06
8.136
8.108
7.988
8.052
8.136
8.148
8.06
8.072
8.152
8.124
8.096
8.088
8.168
8.128
8.16
8.132
8.18
8.164
8.184
8.1
8.184
8.216
8.22
8.096
8.156
8.236
8.248
8.16
8.212
8.296
8.272
8.24
8.284
8.392
8.32
8.316
8.284
8.428
8.432
8.48
8.432
8.524
8.564
8.604
8.5
8.604
8.696
8.732
8.648
8.744
8.808
8.804
8.68
8.74
8.784
8.68
8.58
8.548
8.62
8.54
8.424
8.34
8.384
8.296
8.268
8.168
8.228
8.184
8.164
8.044
8.116
8.132
8.124
8.044
8.104
8.156
8.132
8.032
8.048
8.1
8.072
8.02
8.048
8.112
8.04
8.068
8.048
8.112
8.072
8.056
8.004
8.112
8.112
8.084
7.92
8.072
8.14
8.14
7.988
8.004
8.084
8.108
8.064
8.072
8.132
8.096
8.008
7.956
8.124
8.092
8.064
7.948
8.052
8.028
8.04
7.968
8.076
8.1
8.116
7.948
8.004
8.104
8.128
7.936
7.992
8.052
8.08
7.968
7.984
8.064
8.056
8.016
7.936
8.06
8.068
8.06
7.976
8.008
8
8.056
7.948
8.064
8.084
8.088
7.972
7.992
8.06
8.06
7.972
8.02
8.072
7.98
7.924
7.944
8.032
7.988
8.008
7.988
8.14
8.064
8.004
7.956
8.084
8.068
8.016
7.916
8.06
8.096
8.012
7.9
8.008
8.088
8.02
7.884
7.948
8.072
8.04
7.996
7.984
8.032
8.016
8.016
8.032
8.172
8.16
8.096
8.032
8.18
8.26
8.244
8.116
8.208
8.236
8.212
8.108
8.192
8.188
8.188
8.076
8.096
8.092
8.024
7.96
8.012
8.068
8.024
7.924
7.9
8.012
7.988
7.948
7.88
7.984
8.008
8.004
7.844
7.9
7.932
7.872
7.96
8.74
9.692
10.684
11.2
10.664
10.064
9.48
8.816
8.424
8.208
8.108
8.092
8.076
8.22
8.168
8.112
7.976
8.004
8.028
8.052
7.98
8.06
8.076
8.068
7.928
8.06
8.076
8.024
7.948
7.996
8.072
8.068
8.056
8.064
8.056
8.032
8.092
8.08
8.104
8.088
8.096
7.988
8.116
8.164
8.18
8.048
8.128
8.136
8.192
8.144
8.192
8.18
8.184
8.18
8.216
8.248
8.22
8.188
8.292
8.364
8.336
8.32
8.304
8.376
8.38
8.408
8.424
8.52
8.548
8.592
8.52
8.668
8.696
8.724
8.692
8.76
8.82
8.8
8.716
8.812
8.868
8.836
8.72
8.652
8.7
8.624
8.564
8.408
8.448
8.4
8.368
8.2
8.228
8.164
8.184
8.1
8.176
8.152
8.148
8.06
8.072
8.064
8.028
8.016
8.036
8.072
7.992
8.012
8.012
8.104
8.068
8.02
8.048
8.14
8.084
8.072
7.988
8.092
8.088
8.128
8.044
8.1
8.116
8.136
8.004
8.108
8.164
8.104
8.02
8.088
8.08
8.068
8.06
8.088
8.136
8.06
8.064
8.064
8.136
8.1
8.036
7.98
8.112
8.092
8.056
7.948
8.032
8.076
8.072
7.98
8.044
8.088
8.036
8.004
8.044
8.12
8.084
8.052
8.052
8.084
8.052
8.044
7.996
8.12
8.1
8.064
7.988
8.088
8.056
8.08
8.02
8.112
8.1
8.032
7.992
8.024
8.112
8.08
8.028
8.044
8.096
8.064
8.048
8.028
8.104
8.06
8.04
8
8.088
8.08
8.08
8
8.084
8.08
8.104
8.012
8.064
8.1
8.096
8.02
8.096
8.112
8.076
8.032
8.048
8.092
8.068
8.064
8.064
8.132
8.096
8.128
8.076
8.136
8.196
8.244
8.12
8.248
8.3
8.332
8.204
8.316
8.32
8.292
8.248
8.284
8.336
8.248
8.212
8.252
8.26
8.136
8.088
8.056
8.128
8.092
8.072
8
8.1
8.072
8.112
7.996
8.096
8.072
8.076
8
8.076
8.02
7.984
7.88
8.052
8.74
9.672
10.772
11.524
11.032
10.28
9.716
9.076
8.588
8.232
8.22
8.22
8.296
8.28
8.244
8.132
8.2
8.176
8.16
8.068
8.152
8.184
8.152
8.104
8.128
8.188
8.144
8.132
8.136
8.192
8.168
8.148
8.14
8.216
8.168
8.208
8.16
8.252
8.224
8.208
8.132
8.216
8.244
8.244
8.176
8.212
8.256
8.228
8.224
8.248
8.288
8.26
8.24
8.276
8.344
8.312
8.336
8.304
8.404
8.388
8.428
8.388
8.476
8.464
8.516
8.472
8.548
8.572
8.624
8.58
8.66
8.704
8.724
8.696
8.804
8.884
8.852
8.828
8.852
8.948
8.908
8.908
8.852
8.88
8.796
8.752
8.624
8.656
8.58
8.532
8.42
8.444
8.388
8.316
8.236
8.256
8.26
8.22
8.176
8.192
8.228
8.2
8.188
8.148
8.188
8.132
8.164
8.116
8.184
8.172
8.18
8.096
8.188
8.192
8.228
8.132
8.192
8.196
8.208
8.132
8.188
8.212
8.2
8.184
8.2
8.196
8.192
8.192
8.18
8.232
8.176
8.188
8.156
8.216
8.184
8.204
8.1
8.18
8.184
8.212
8.14
8.18
8.192
8.184
8.148
8.196
8.188
8.152
8.136
8.144
8.2
8.164
8.132
8.116
8.16
8.168
8.168
8.136
8.188
8.172
8.18
8.1
8.168
8.164
8.176
8.116
8.172
8.176
8.148
8.1
8.148
8.164
8.148
8.136
8.132
8.188
8.144
8.152
8.116
8.184
8.12
8.168
8.108
8.188
8.14
8.172
8.116
8.196
8.14
8.148
8.076
8.144
8.168
8.16
8.116
8.136
8.144
8.108
8.136
8.136
8.16
8.128
8.128
8.132
8.176
8.144
8.168
8.112
8.176
8.16
8.192
8.132
8.192
8.148
8.168
8.128
8.164
8.172
8.16
8.116
8.168
8.16
8.14
8.12
8.152
8.18
8.16
8.168
8.128
8.172
8.156
8.172
8.132
8.156
8.148
8.2
8.136
8.18
8.148
8.164
8.12
8.172
8.184
8.168
8.192
8.236
8.28
8.244
8.268
8.316
8.384
8.348
8.352
8.32
8.396
8.336
8.364
8.3
8.356
8.316
8.316
8.2
8.208
8.18
8.16
8.132
8.16
8.168
8.14
8.132
8.12
8.136
8.096
8.1
8.104
8.14
8.084
8.056
8.012
8.032
7.984
8.448
9.228
10.36
11.256
11.128
10.352
9.956
9.456
8.96
8.456
8.348
8.356
8.332
8.324
8.332
8.272
8.204
8.196
8.176
8.184
8.164
8.196
8.176
8.208
8.188
8.212
8.16
8.208
8.208
8.212
8.196
8.212
8.192
8.192
8.16
8.212
8.22
8.18
8.204
8.212
8.264
8.22
8.252
8.22
8.264
8.216
8.276
8.24
8.304
8.276
8.316
8.256
8.296
8.272
8.304
8.288
8.344
8.332
8.34
8.332
8.368
8.404
8.396
8.408
8.44
8.476
8.448
8.496
8.528
8.564
8.548
8.6
8.6
8.684
8.684
8.74
8.716
8.78
8.756
8.796
8.772
8.804
8.788
8.776
8.736
8.724
8.688
8.632
8.58
8.548
8.504
8.42
8.408
8.356
8.336
8.292
8.28
8.232
8.26
8.22
8.244
8.16
8.18
8.172
8.2
8.168
8.192
8.192
8.164
8.156
8.192
8.192
8.152
8.148
8.156
8.18
8.128
8.148
8.152
8.152
8.14
8.168
8.144
8.18
8.156
8.188
8.152
8.172
8.148
8.156
8.144
8.176
8.168
8.136
8.16
8.18
8.172
8.132
8.132
8.152
8.164
8.124
8.156
8.128
8.164
8.128
8.168
8.128
8.16
8.132
8.148
8.104
8.156
8.104
8.128
8.104
8.136
8.144
8.108
8.112
8.116
8.116
8.088
8.124
8.132
8.128
8.12
8.156
8.116
8.144
8.104
8.144
8.104
8.152
8.132
8.16
8.088
8.136
8.12
8.136
8.104
8.144
8.112
8.084
8.1
8.136
8.1
8.076
8.104
8.132
8.124
8.1
8.136
8.104
8.108
8.104
8.12
8.096
8.116
8.088
8.124
8.1
8.124
8.108
8.096
8.092
8.132
8.136
8.088
8.112
8.124
8.128
8.12
8.136
8.124
8.124
8.108
8.168
8.128
8.132
8.104
8.148
8.112
8.14
8.112
8.14
8.108
8.14
8.112
8.14
8.164
8.208
8.22
8.228
8.252
8.288
8.308
8.292
8.34
8.324
8.356
8.324
8.376
8.304
8.312
8.26
8.296
8.204
8.168
8.132
8.144
8.1
8.116
8.072
8.1
8.088
8.072
8.08
8.064
8.08
8.104
8.08
8.056
8.08
8.012
7.992
7.948
7.992
8.376
9.184
10.128
11.032
10.836
10.18
9.736
9.372
8.836
8.444
8.236
8.248
8.236
8.268
8.248
8.188
8.172
8.16
8.112
8.1
8.148
8.12
8.148
8.124
8.176
8.132
8.156
8.104
8.176
8.124
8.14
8.108
8.156
8.104
8.156
8.148
8.116
8.128
8.168
8.152
8.16
8.172
8.176
8.184
8.16
8.2
8.192
8.184
8.168
8.252
8.208
8.22
8.224
8.264
8.244
8.252
8.256
8.284
8.296
8.288
8.308
8.324
8.348
8.364
8.384
8.364
8.428
8.432
8.456
8.472
8.528
8.544
8.572
8.576
8.636
8.628
8.664
8.644
8.74
8.692
8.712
8.716
8.708
8.68
8.66
8.616
8.54
8.54
8.512
8.46
8.36
8.348
8.3
8.28
8.22
8.256
8.164
8.168
8.128
8.184
8.128
8.144
8.108
8.14
8.096
8.108
8.104
8.112
8.092
8.092
8.104
8.076
8.08
8.104
8.124
8.092
8.112
8.08
8.076
8.072
8.152
8.08
8.12
8.068
8.136
8.088
8.12
8.096
8.112
8.08
8.112
8.088
8.092
8.076
8.116
8.088
8.092
8.1
8.092
8.084
8.028
8.092
8.08
8.06
8.032
8.108
8.044
8.06
8.036
8.104
8.032
8.06
8.048
8.092
8.02
8.052
8.024
8.056
8.052
8.044
8.032
8.004
8.064
8.064
8.048
8.008
8.044
8.032
8.028
8.016
8.06
8.044
8.04
8.02
8.068
8.044
8.04
8.036
8.076
8.056
8.064
8.056
8.04
8.052
8.064
8.04
8.028
8.032
8.044
8.064
8.036
8.072
8.036
8.036
8.012
8.08
8.048
8.028
8.02
8.08
8.048
8.064
8.044
8.064
8.024
8.068
8.032
8.016
8.024
8.048
8.052
8.004
8.032
8.028
8.016
7.98
8.056
8.04
8.036
8.032
8.128
8.108
8.152
8.12
8.196
8.192
8.236
8.212
8.256
8.224
8.24
8.224
8.22
8.224
8.18
8.18
8.152
8.16
8.084
8.052
8
8.084
8
8.036
8
8.056
7.992
8.02
7.98
8.048
8.004
8.032
7.968
8.016
7.94
7.904
7.848
7.892
8.404
9.2
10.12
10.836
10.528
9.916
9.568
9.092
8.696
8.256
8.144
8.132
8.216
8.184
8.144
8.088
8.096
8.04
8.068
8.044
8.052
8.044
8.064
8.044
8.032
8.068
8.048
8.056
8.036
8.076
8.072
8.08
8.044
8.108
8.068
8.056
8.028
8.124
8.08
8.08
8.076
8.132
8.096
8.096
8.104
8.144
8.124
8.096
8.096
8.096
8.168
8.164
8.156
8.12
8.196
8.184
8.192
8.164
8.248
8.204
8.244
8.2
8.312
8.26
8.288
8.288
8.352
8.356
8.38
8.352
8.416
8.448
8.488
8.472
8.48
8.56
8.592
8.584
8.576
8.616
8.608
8.592
8.588
8.624
8.528
8.492
8.436
8.452
8.352
8.288
8.248
8.276
8.192
8.144
8.108
8.112
8.08
8.084
8.036
8.008
8.024
8
8
7.972
8.04
7.992
7.996
7.972
8.048
8.004
7.98
7.964
8.032
8.016
7.992
7.98
8.004
8.008
8.008
7.996
7.988
8.008
8.008
7.992
7.988
8.02
7.984
7.96
7.98
8.052
8
7.984
7.944
8.028
7.976
7.988
7.94
8.044
7.98
7.988
7.96
8.016
7.98
7.952
7.96
7.988
7.988
7.972
7.964
7.948
7.968
7.964
7.944
7.932
8.016
7.956
7.944
7.936
8
7.96
7.944
7.924
8.028
7.948
7.972
7.936
8
7.96
7.976
7.944
7.936
7.976
7.98
7.96
7.948
8.008
7.96
7.956
7.928
8.016
7.984
7.972
7.94
8.044
7.976
7.972
7.944
8.02
7.968
7.98
7.964
7.988
7.968
7.984
7.956
7.952
7.992
7.964
7.96
7.936
8.008
7.98
7.964
7.956
8.032
7.992
7.98
7.944
8.048
7.984
8.036
8.024
8.112
8.088
8.108
8.108
8.188
8.196
8.176
8.148
8.192
8.224
8.184
8.136
8.112
8.176
8.124
8.076
7.972
8.04
7.992
8.008
7.968
8.024
7.964
7.944
7.944
8.02
7.968
7.956
7.928
7.956
7.952
7.956
7.884
7.844
7.86
7.812
8.132
8.764
9.696
10.528
10.652
10.012
9.668
9.272
8.788
8.36
8.18
8.092
8.1
8.108
8.168
8.084
8.052
8
8.036
8.028
8.024
8.012
8.004
8.04
8.012
7.992
7.984
8.072
8.04
8.016
8.008
8.108
8.044
8.04
8.008
8.1
8.056
8.048
8.036
8.108
8.072
8.068
8.052
8.108
8.092
8.056
8.08
8.084
8.128
8.108
8.084
8.076
8.2
8.148
8.128
8.104
8.208
8.168
8.164
8.192
8.28
8.22
8.22
8.244
8.312
8.288
8.284
8.312
8.36
8.392
8.392
8.396
8.408
8.496
8.484
8.496
8.508
8.604
8.568
8.572
8.548
8.644
8.588
8.528
8.476
8.568
8.468
8.404
8.336
8.36
8.304
8.232
8.156
8.168
8.156
8.104
8.048
8.044
8.076
8.04
8.016
8
8.064
7.988
7.972
7.996
8.088
8
7.976
7.968
8.068
7.988
8
7.96
8.016
7.98
7.992
7.952
8.008
8.008
7.98
7.948
7.976
8.028
7.988
7.968
7.94
8.052
7.98
7.972
7.96
8.02
7.988
7.972
7.948
8.02
7.976
7.924
7.94
8.004
7.976
7.944
7.94
7.968
8.004
7.944
7.936
7.936
7.984
7.956
7.936
7.916
8.004
7.94
7.928
7.912
8.032
7.944
7.936
7.944
8.02
7.972
7.932
7.928
8
8.004
7.964
7.944
7.956
7.992
7.936
7.936
7.956
8.02
7.948
7.944
7.932
8.044
7.964
7.944
7.924
8.02
7.956
7.952
7.932
8.048
7.976
7.976
7.952
8.008
8.016
7.996
7.996
8.02
8.084
8.06
8.028
8.12
8.204
8.148
8.14
8.132
8.24
8.196
8.192
8.164
8.228
8.144
8.132
8.064
8.116
8.016
7.988
7.984
7.996
7.952
7.952
7.936
7.964
8.016
7.944
7.908
7.92
7.996
7.936
7.92
7.904
7.936
7.864
7.808
7.82
8.344
9.02
9.848
10.66
10.512
9.856
9.456
9.076
8.676
8.3
8.088
8.056
8.092
8.168
8.12
8.064
8.056
8.092
8.024
8.004
8
8.088
8.028
8
8.004
8.096
8.052
8
7.988
8.072
8.052
8.032
8.008
8.044
8.076
8.048
8.024
8.02
8.092
8.02
8.044
8.068
8.14
8.096
8.06
8.04
8.184
8.1
8.088
8.088
8.2
8.132
8.128
8.12
8.2
8.184
8.152
8.176
8.232
8.248
8.204
8.208
8.244
8.332
8.272
8.26
8.296
8.412
8.388
8.364
8.396
8.516
8.468
8.472
8.46
8.564
8.536
8.548
8.544
8.612
8.608
8.568
8.528
8.536
8.544
8.452
8.384
8.344
8.384
8.28
8.212
8.164
8.232
8.128
8.12
8.096
8.156
8.048
8.02
8.028
8.112
8.044
7.996
8
8.056
8.056
8.012
7.996
8.016
8.06
8.02
8.004
7.996
8.088
8.012
7.992
8.008
8.096
8.024
7.968
8
8.088
8.028
7.976
7.968
8.072
8.032
7.996
7.98
8.024
8.04
7.996
7.984
8
8.028
7.984
7.976
7.996
8.072
7.964
7.964
7.98
8.08
8.012
7.968
7.96
8.06
7.988
7.988
7.976
8.056
8.008
7.992
7.972
8.04
8
7.98
7.928
8.016
8.024
8
7.956
7.984
8.076
7.988
7.968
7.984
8.092
7.984
7.984
7.98
8.064
7.988
7.98
7.972
8.1
8.016
7.988
7.984
8.04
8.044
8.008
7.956
8.02
8.064
8.04
8.04
8.076
8.184
8.112
8.096
8.144
8.268
8.192
8.152
8.188
8.312
8.224
8.196
8.18
8.256
8.188
8.168
8.128
8.128
8.068
8.024
8
8.032
8.044
7.996
7.936
7.992
8.068
7.988
7.96
7.98
8.072
8
7.952
7.968
8.024
7.92
7.868
7.856
8.324
8.992
9.804
10.592
10.532
9.944
9.5
9.168
8.736
8.412
8.116
8.096
8.124
8.236
8.128
8.088
8.06
8.156
8.076
8.064
8.048
8.14
8.064
8.048
8.016
8.112
8.072
8.06
8.028
8.104
8.12
8.076
8.04
8.076
8.132
8.076
8.064
8.084
8.192
8.064
8.096
8.1
8.196
8.116
8.128
8.112
8.22
8.132
8.124
8.136
8.216
8.224
8.176
8.148
8.212
8.24
8.176
8.192
8.268
8.312
8.252
8.232
8.284
8.384
8.312
8.288
8.312
8.484
8.404
8.4
8.396
8.524
8.496
8.496
8.452
8.592
8.592
8.564
8.568
8.628
8.644
8.56
8.52
8.552
8.596
8.468
8.376
8.36
8.424
8.284
8.232
8.208
8.26
8.168
8.12
8.1
8.192
8.12
8.072
8.06
8.096
8.076
8.016
7.996
8.08
8.104
8.024
7.992
8.032
8.084
8.012
7.996
8.032
8.12
8.012
7.972
8.004
8.124
8.024
8.004
7.992
8.092
8.044
7.988
7.988
8.06
8.056
7.968
7.968
8.004
8.048
7.98
7.972
7.976
8.048
7.968
7.956
8
8.088
7.972
7.924
7.972
8.088
7.996
7.968
7.948
8.044
7.988
7.948
7.948
8.02
8.004
7.984
7.964
7.996
8.028
7.948
7.928
7.988
8.092
7.976
7.956
7.988
8.08
7.988
7.964
7.992
8.092
8.012
7.98
7.98
8.06
8.024
7.968
7.968
8.04
8.036
7.96
7.956
8
8.064
7.956
7.964
7.996
8.104
7.996
7.968
8.008
8.12
8
7.96
7.988
8.108
8.008
7.968
7.988
8.068
8.024
7.964
7.984
8.056
8.064
8.008
7.956
8.012
8.064
8.008
7.992
8.052
8.164
8.096
8.088
8.156
8.272
8.192
8.152
8.208
8.308
8.232
8.18
8.212
8.272
8.224
8.144
8.116
8.136
8.08
7.988
8.016
8.032
8.068
7.948
7.928
7.976
8.088
7.976
7.936
7.948
8.1
7.976
7.948
7.936
8.016
7.912
7.812
7.972
8.64
9.364
10.12
10.624
10.196
9.736
9.364
8.976
8.584
8.324
8.076
8.088
8.128
8.244
8.112
8.052
8.052
8.148
8.008
8.016
8.064
8.176
8.076
8.02
8.044
8.116
8.092
8.02
8.024
8.08
8.132
8.04
8.016
8.092
8.156
8.044
8.02
8.08
8.172
8.08
8.084
8.132
8.232
8.096
8.064
8.1
8.232
8.152
8.12
8.108
8.208
8.212
8.164
8.164
8.224
8.244
8.196
8.192
8.248
8.332
8.24
8.236
8.312
8.428
8.324
8.288
8.34
8.456
8.376
8.388
8.432
8.54
8.512
8.492
8.516
8.604
8.6
8.56
8.576
8.656
8.688
8.596
8.552
8.592
8.648
8.476
8.452
8.412
8.492
8.312
8.236
8.22
8.348
8.192
8.148
8.152
8.232
8.148
8.072
8.056
8.156
8.132
8.048
8.036
8.096
8.156
8.048
8.008
8.04
8.144
8.028
8.012
8.02
8.152
8.008
8.028
8.056
8.176
8.04
8.02
8.04
8.132
8.06
8.012
8
8.096
8.076
8.008
7.98
8.06
8.084
8.008
7.988
8.032
8.1
7.988
7.956
8.008
8.108
7.988
7.96
8.004
8.12
8
7.956
7.996
8.084
8.052
7.984
7.964
8.036
8.044
7.968
7.952
8.012
8.076
7.936
7.952
8.02
8.112
7.98
7.952
8.016
8.132
8.004
7.988
7.992
8.136
7.996
7.952
7.992
8.096
8.04
7.98
8.004
8.056
8.08
7.944
7.956
8.036
8.1
7.956
7.964
8.024
8.12
8
7.98
8.028
8.12
8.008
7.972
8.012
8.124
8.036
7.984
7.98
8.092
8.032
7.984
7.996
8.064
8.084
7.996
8
8.032
8.12
8.012
8.008
8.048
8.12
8
7.976
8.04
8.188
8.072
8.052
8.1
8.248
8.136
8.132
8.156
8.268
8.272
8.204
8.216
8.272
8.32
8.22
8.224
8.236
8.288
8.156
8.108
8.064
8.168
8.048
8.008
8.04
8.148
8.036
7.992
7.988
8.088
8.02
7.956
8.012
8.096
8.036
7.924
7.916
7.948
7.912
8.044
8.68
9.592
10.56
10.8
10.236
9.832
9.632
9.056
8.576
8.244
8.248
8.112
8.112
8.148
8.272
8.12
8.064
8.08
8.136
8.124
8.048
8.044
8.088
8.144
8.048
8.064
8.116
8.18
8.016
8.028
8.084
8.192
8.064
8.052
8.092
8.22
8.092
8.044
8.08
8.188
8.148
8.088
8.104
8.188
8.164
8.084
8.116
8.188
8.232
8.14
8.128
8.204
8.276
8.16
8.14
8.232
8.364
8.208
8.188
8.272
8.404
8.288
8.24
8.316
8.42
8.356
8.32
8.38
8.496
8.504
8.416
8.472
8.552
8.62
8.52
8.508
8.616
8.716
8.568
8.588
8.668
8.788
8.612
8.58
8.576
8.644
8.468
8.388
8.384
8.432
8.32
8.232
8.216
8.268
8.244
8.12
8.088
8.176
8.204
8.064
8.056
8.088
8.18
8.048
8.052
8.096
8.204
8.044
8.012
8.056
8.184
8.056
8.02
8.056
8.132
8.088
8.004
8.028
8.128
8.1
8.02
8.04
8.092
8.124
7.996
8.004
8.076
8.16
8.016
7.972
8.044
8.156
8
7.988
8.02
8.128
8.024
7.976
8.004
8.1
8.044
7.992
8.012
8.088
8.068
7.972
7.984
8.048
8.1
7.992
7.948
8.024
8.14
8.004
7.976
8.004
8.14
8.008
7.956
8
8.124
8.04
7.98
8.02
8.108
8.052
7.968
7.992
8.072
8.084
7.976
8.008
8.044
8.108
7.992
7.992
8.06
8.14
7.992
7.952
8.016
8.16
8.008
7.972
8.04
8.144
8.04
7.964
8.008
8.12
8.052
7.944
7.992
8.076
8.08
7.968
8.008
8.048
8.108
7.984
7.992
8.048
8.156
8.008
7.988
8.04
8.148
8
7.968
8.008
8.128
8.024
7.964
7.996
8.092
8.052
8
8.024
8.068
8.052
7.952
7.996
8.068
8.124
7.984
8
8.128
8.216
8.096
8.092
8.18
8.3
8.2
8.16
8.188
8.332
8.248
8.208
8.216
8.264
8.204
8.12
8.136
8.132
8.096
7.972
8
8.04
8.12
7.964
7.968
7.996
8.112
7.948
7.928
7.996
8.088
7.956
7.944
7.936
8.004
7.892
7.78
8.068
8.788
9.68
10.464
10.836
10.304
9.852
9.388
8.88
8.512
8.272
8.08
8.08
8.176
8.272
8.084
8.032
8.1
8.184
8.016
7.992
8.036
8.144
8.044
7.98
8.032
8.108
8.088
8.008
8.02
8.092
8.112
8.004
8.012
8.112
8.164
8.008
8.012
8.096
8.192
8.052
8.052
8.096
8.204
8.084
8.048
8.104
8.196
8.12
8.104
8.14
8.22
8.204
8.108
8.156
8.228
8.264
8.136
8.176
8.264
8.352
8.216
8.208
8.28
8.424
8.28
8.284
8.36
8.496
8.368
8.38
8.436
8.532
8.48
8.424
8.504
8.612
8.608
8.528
8.584
8.664
8.704
8.584
8.588
8.604
8.664
8.48
8.44
8.456
8.52
8.3
8.248
8.284
8.364
8.18
8.1
8.128
8.208
8.116
8.056
8.048
8.116
8.12
8.008
8.032
8.08
8.136
7.98
8.008
8.088
8.164
7.996
7.996
8.072
8.156
8.036
7.98
8.048
8.152
8.04
7.984
8.048
8.112
8.016
7.976
8.02
8.088
8.076
7.964
7.992
8.06
8.116
7.96
7.972
8.032
8.156
7.972
7.928
8.02
8.112
7.964
7.936
8.004
8.08
7.96
7.912
7.984
8.088
7.996
7.924
7.98
8.068
8.036
7.932
7.952
8.036
8.092
7.94
7.956
8.016
8.12
7.952
7.94
8.016
8.112
7.952
7.956
7.992
8.104
7.972
7.916
7.98
8.068
8.008
7.932
7.968
8.024
8.044
7.916
7.972
8.008
8.08
7.932
7.964
8.028
8.104
7.936
7.928
8.024
8.136
7.968
7.92
7.984
8.092
7.972
7.944
7.968
8.06
8.012
7.94
7.984
8.044
8.06
7.948
7.964
8.04
8.088
7.936
7.948
8.032
8.128
7.968
7.936
8.004
8.1
7.976
7.952
8.02
8.096
8.028
7.948
8.008
8.072
8.008
7.94
7.956
8.068
8.048
7.936
7.98
8.072
8.136
8.032
8.044
8.152
8.248
8.128
8.136
8.204
8.308
8.148
8.136
8.22
8.304
8.16
8.084
8.136
8.212
8.092
7.98
7.984
8.072
8.048
7.952
7.964
8.028
8.052
7.924
7.912
8
8.076
7.908
7.92
7.992
8.072
7.844
7.82
7.796
8.048
8.508
9.28
10.232
10.912
10.372
9.768
9.448
9.06
8.608
8.16
8.112
8.188
8.244
8.1
8.064
8.096
8.184
8.016
7.976
8.048
8.152
8.012
7.984
8.02
8.136
7.996
7.96
8.028
8.112
8.036
7.976
7.996
8.112
8.1
8
7.992
8.104
8.144
8.024
8.016
8.104
8.184
8.048
8.02
8.068
8.18
8.068
8.032
8.12
8.228
8.108
8.044
8.108
8.248
8.184
8.12
8.152
8.244
8.248
8.152
8.192
8.292
8.352
8.212
8.24
8.332
8.424
8.288
8.284
8.388
8.5
8.38
8.352
8.42
8.572
8.488
8.456
8.536
8.648
8.584
8.524
8.58
8.624
8.584
8.448
8.452
8.492
8.512
8.292
8.264
8.3
8.372
8.16
8.096
8.172
8.236
8.088
8.024
8.076
8.152
8.028
7.992
8.052
8.124
8.06
7.96
7.984
8.088
8.096
7.972
7.988
8.072
8.136
7.996
7.956
8.04
8.116
7.964
7.94
8.032
8.144
7.98
7.964
8.004
8.112
7.988
7.916
8.004
8.088
8.016
7.932
7.964
8.06
8.056
7.96
7.948
8.048
8.08
7.952
7.94
8.036
8.116
7.944
7.928
8.008
8.12
7.944
7.928
7.992
8.084
7.992
7.928
7.976
8.052
8.016
7.94
7.952
8.052
8.08
7.944
7.976
8.024
8.096
7.924
7.928
8.016
8.12
7.928
7.94
7.992
8.096
7.968
7.916
7.988
8.084
7.984
7.928
7.976
8.072
7.98
7.92
7.968
8.06
8.068
7.916
7.928
8.016
8.112
7.924
7.928
8.024
8.084
7.948
7.92
7.984
8.092
7.96
7.92
8.008
8.08
7.988
7.916
7.976
8.076
8.044
7.928
7.952
8.06
8.06
7.916
7.924
8.056
8.112
7.94
7.924
8.024
8.104
7.928
7.912
8.024
8.088
7.948
7.92
7.952
8.084
7.956
7.888
7.964
8.04
8.012
7.936
7.992
8.08
8.128
7.996
8.044
8.16
8.228
8.052
8.096
8.212
8.284
8.14
8.12
8.188
8.264
8.112
8.068
8.14
8.184
8.036
7.944
7.972
8.08
8.024
7.924
7.96
8.056
8.048
7.876
7.896
8.004
8.056
7.888
7.884
7.98
7.992
7.796
7.744
7.828
8.392
8.976
9.844
10.684
10.52
9.864
9.46
9.172
8.796
8.332
7.992
8.036
8.164
8.176
8.016
7.992
8.064
8.12
7.956
7.968
8.048
8.116
7.944
7.912
8.004
8.112
7.976
7.916
8.004
8.072
8.016
7.92
7.992
8.096
8.06
7.944
7.996
8.076
8.096
7.956
7.992
8.084
8.136
7.972
7.964
8.132
8.2
8.036
7.988
8.088
8.192
8.064
8.02
8.116
8.212
8.132
8.076
8.12
8.232
8.204
8.084
8.124
8.264
8.308
8.168
8.208
8.308
8.4
8.24
8.26
8.396
8.496
8.348
8.344
8.46
8.532
8.444
8.436
8.524
8.644
8.568
8.496
8.536
8.612
8.56
8.396
8.404
8.46
8.428
8.232
8.18
8.26
8.292
8.088
8.048
8.132
8.168
7.992
7.924
8.052
8.104
7.96
7.908
7.992
8.092
8.008
7.904
7.964
8.06
8.024
7.92
7.928
8.044
8.06
7.896
7.916
8.012
8.076
7.916
7.92
8.004
8.068
7.9
7.892
7.972
8.052
7.932
7.876
7.944
8.044
7.948
7.868
7.916
8.024
8
7.88
7.912
8.028
8.028
7.864
7.872
7.972
8.044
7.864
7.868
7.988
8.024
7.884
7.856
7.948
8.02
7.92
7.868
7.948
8.012
7.932
7.828
7.9
7.992
7.972
7.872
7.884
7.972
8.02
7.86
7.86
7.98
8.004
7.836
7.832
7.944
8
7.872
7.84
7.936
8.004
7.876
7.844
7.908
7.984
7.952
7.836
7.884
7.984
7.972
7.852
7.872
7.984
8.016
7.84
7.868
7.988
8.008
7.84
7.872
7.964
8.008
7.872
7.836
7.936
8.008
7.896
7.848
7.9
8
7.948
7.868
7.916
8.016
7.976
7.832
7.888
7.976
7.996
7.852
7.864
7.964
8.032
7.84
7.852
7.956
8.012
7.868
7.852
7.924
8.004
7.888
7.848
7.944
8.068
8.004
7.932
8.02
8.148
8.16
8.028
8.08
8.184
8.188
8.08
8.072
8.172
8.188
8.028
8.012
8.116
8.1
7.908
7.868
7.964
7.996
7.892
7.832
7.904
7.984
7.928
7.816
7.88
7.952
7.964
7.812
7.856
7.888
7.864
7.712
7.692
8.06
8.768
9.516
10.392
10.776
10.236
9.676
9.284
8.896
8.516
8.108
7.972
8.052
8.16
8.112
7.992
8.004
8.056
8.04
7.892
7.928
8.008
8.032
7.872
7.908
8.012
8.06
7.9
7.9
8.02
8.056
7.936
7.912
8.004
8.052
7.992
7.92
7.992
8.06
8.004
7.92
7.988
8.092
8.08
7.94
7.968
8.112
8.14
7.988
7.972
8.1
8.14
7.992
8.016
8.124
8.14
8.064
8.02
8.144
8.232
8.164
8.072
8.168
8.268
8.248
8.144
8.22
8.344
8.384
8.236
8.292
8.42
8.464
8.34
8.372
8.512
8.544
8.424
8.452
8.564
8.624
8.524
8.46
8.56
8.596
8.496
8.348
8.392
8.412
8.364
8.148
8.18
8.24
8.224
8.008
8.052
8.108
8.124
7.94
7.936
8.068
8.084
7.908
7.912
7.988
8.068
7.96
7.912
8
8.044
7.984
7.912
7.976
8.04
7.988
7.876
7.968
8.06
8.076
7.888
7.912
8.032
8.056
7.896
7.912
8.008
8.076
7.916
7.912
7.984
8.048
7.916
7.888
7.984
8.04
7.956
7.856
7.948
8.036
8.02
7.852
7.924
8.024
8.044
7.88
7.908
8.016
8.024
7.884
7.892
7.996
8.008
7.884
7.868
8.016
8.028
7.94
7.888
7.996
8.02
7.968
7.872
7.936
8.032
7.992
7.88
7.936
8.028
8.032
7.856
7.912
8.012
8.036
7.864
7.892
8
8.02
7.88
7.852
7.968
8.024
7.956
7.896
7.964
8.012
7.984
7.876
7.948
8.04
8.02
7.892
7.94
8.008
8.024
7.872
7.916
8.012
8.04
7.88
7.876
8.004
8.044
7.912
7.9
7.988
8.028
7.932
7.896
7.98
8.016
7.98
7.884
7.976
8.048
8.028
7.868
7.928
8.02
8.044
7.884
7.92
8.012
8.048
7.884
7.92
8.012
8.028
7.9
7.888
8.012
8.04
7.972
7.856
7.972
8.028
8.024
7.92
8.028
8.068
8.144
8
8.076
8.196
8.204
8.068
8.12
8.212
8.244
8.108
8.108
8.204
8.208
8.088
8.02
8.08
8.068
7.984
7.912
8.004
8.036
7.984
7.912
7.96
8.02
8.004
7.848
7.924
8.008
8.028
7.84
7.848
7.908
7.9
7.716
8.1
8.924
9.856
10.6
10.58
10.08
9.68
9.268
8.692
8.364
8.192
8.152
8.032
8.132
8.184
8.132
7.94
7.972
8.084
8.064
7.92
7.964
8.084
8.06
7.968
7.952
8.064
8.048
7.968
7.944
8.056
8.056
8.008
7.928
8.036
8.092
8.056
7.948
8.016
8.096
8.104
7.964
8.016
8.116
8.116
7.972
8.024
8.124
8.144
8.012
8.036
8.116
8.192
8.064
8.06
8.168
8.216
8.152
8.056
8.172
8.244
8.216
8.108
8.232
8.308
8.316
8.18
8.26
8.364
8.4
8.284
8.328
8.456
8.472
8.376
8.412
8.54
8.572
8.516
8.488
8.584
8.628
8.588
8.476
8.54
8.552
8.504
8.316
8.36
8.38
8.312
8.132
8.168
8.196
8.2
8.028
8.032
8.092
8.08
7.976
7.956
8.064
8.06
7.956
7.944
8.04
8.048
7.988
7.9
7.992
8.064
8.036
7.908
7.972
8.052
8.028
7.9
7.94
8.036
8.02
7.876
7.924
8.044
8.012
7.92
7.892
8.044
8.032
7.956
7.908
8.008
8.032
8.004
7.888
7.964
8.016
8.012
7.888
7.956
8.036
7.992
7.848
7.936
8.016
8
7.86
7.896
8.02
8
7.9
7.868
8.012
8.004
7.916
7.88
7.98
8
7.968
7.88
7.968
7.984
7.944
7.868
7.936
8.024
7.992
7.86
7.888
8.004
7.996
7.828
7.888
7.996
8.008
7.896
7.884
7.992
7.984
7.94
7.876
7.992
8
7.952
7.868
7.968
8
7.984
7.852
7.924
8.008
8
7.856
7.924
7.996
7.98
7.872
7.88
7.992
8
7.892
7.892
8.008
7.976
7.912
7.848
7.984
7.992
7.976
7.864
7.948
8
7.972
7.872
7.944
8.008
7.972
7.86
7.904
8.02
7.972
7.88
7.88
8.016
8.012
7.892
7.884
7.976
8.004
7.932
7.872
7.98
7.992
7.964
7.864
7.956
8.016
8.016
7.912
8
8.116
8.092
8.008
8.088
8.184
8.192
8.06
8.112
8.2
8.216
8.1
8.092
8.136
8.136
8.048
7.956
8.02
8
7.988
7.868
7.948
7.984
7.968
7.84
7.904
7.976
7.952
7.832
7.872
7.972
7.948
7.816
7.788
7.86
7.792
8.04
8.676
9.656
10.496
10.572
9.928
9.616
9.292
8.812
8.268
8.116
8.128
8.136
7.992
8.068
8.072
8.032
7.916
7.964
8.016
8.004
7.872
7.88
8.008
8.032
7.92
7.92
8.004
8.02
7.96
7.896
7.992
8
7.976
7.868
7.96
8.012
8.016
7.88
7.976
8.044
8.028
7.888
7.948
8.036
8.036
7.936
7.94
8.052
8.052
8.016
7.964
8.092
8.088
8.056
7.988
8.096
8.096
8.144
8.012
8.112
8.196
8.184
8.048
8.16
8.264
8.24
8.136
8.216
8.308
8.34
8.268
8.304
8.42
8.428
8.384
8.344
8.5
8.54
8.492
8.412
8.536
8.556
8.508
8.364
8.392
8.432
8.376
8.204
8.248
8.26
8.192
8.052
8.092
8.124
8.068
7.94
7.956
8.04
8.032
7.932
7.88
7.968
7.98
7.952
7.872
7.968
7.98
7.944
7.844
7.936
7.984
7.936
7.832
7.916
7.992
7.944
7.848
7.908
8
7.976
7.868
7.872
7.992
7.972
7.916
7.888
7.956
7.948
7.92
7.856
7.944
7.964
7.944
7.816
7.912
7.984
7.956
7.808
7.888
7.984
7.932
7.816
7.868
7.964
7.924
7.848
7.872
7.936
7.932
7.888
7.864
7.968
7.972
7.9
7.824
7.928
7.972
7.924
7.812
7.908
7.952
7.928
7.836
7.92
7.98
7.928
7.848
7.876
7.952
7.94
7.848
7.852
7.972
7.936
7.896
7.844
7.956
7.944
7.932
7.832
7.928
7.952
7.968
7.86
7.924
7.964
7.952
7.824
7.904
7.996
7.936
7.852
7.868
8
7.952
7.856
7.864
7.98
7.952
7.92
7.824
7.952
7.964
7.964
7.872
7.956
7.964
7.96
7.828
7.936
7.988
7.96
7.848
7.908
8.016
8.008
7.864
7.9
7.984
7.936
7.884
7.888
7.984
7.968
7.928
7.892
7.968
7.98
7.952
7.852
7.968
8.016
7.988
7.912
8.012
8.112
8.096
8.02
8.116
8.204
8.176
8.092
8.112
8.228
8.192
8.092
8.092
8.192
8.168
8.108
7.96
8.02
8.02
8.004
7.896
7.98
8
7.984
7.856
7.92
7.968
7.964
7.84
7.948
7.992
7.976
7.856
7.832
7.92
7.832
8.004
8.608
9.584
10.44
10.74
10.124
9.74
9.5
9.008
8.484
8.2
8.128
8.104
8.036
8.14
8.192
8.1
7.936
8.016
8.072
8.064
7.972
7.98
8.068
8.06
7.996
7.956
8.036
8.06
8.02
7.964
8.068
8.064
8.072
7.972
8.06
8.096
8.052
7.944
8.024
8.112
8.112
7.984
8.072
8.14
8.128
8.036
8.092
8.172
8.148
8.088
8.048
8.184
8.148
8.16
8.072
8.196
8.228
8.216
8.1
8.236
8.284
8.28
8.172
8.276
8.348
8.336
8.26
8.352
8.44
8.432
8.368
8.416
8.568
8.564
8.512
8.484
8.62
8.624
8.624
8.556
8.648
8.664
8.644
8.508
8.56
8.56
8.48
8.352
8.376
8.404
8.316
8.168
8.212
8.248
8.16
8.076
8.088
8.144
8.12
8.056
8.016
8.104
8.096
8.04
7.96
8.076
8.076
8.048
7.944
8.06
8.088
8.048
7.94
8.048
8.096
8.056
7.956
8.024
8.088
8.068
7.976
7.992
8.084
8.064
7.984
7.984
8.088
8.072
8.036
7.948
8.068
8.08
8.048
7.924
8.02
8.068
8.016
7.92
7.992
8.04
8.008
7.904
7.988
8.048
8.012
7.944
7.956
8.064
8.064
8.008
7.948
8.036
8.036
8.012
7.896
8.04
8.032
8.008
7.908
8.048
8.036
8.024
7.932
8
8.044
8.016
7.912
7.988
8.084
8.04
7.952
7.964
8.052
8.036
8.008
7.952
8.076
8.048
8.032
7.948
8.076
8.06
8.032
7.936
8.036
8.064
8.02
7.924
8.016
8.1
8.052
7.94
7.996
8.084
8.036
7.992
7.996
8.1
8.072
8.016
7.96
8.088
8.036
8.036
7.94
8.068
8.096
8.044
7.928
8.036
8.108
8.064
7.944
8.036
8.096
8.048
7.984
8.036
8.1
8.044
7.992
8.012
8.108
8.08
8.024
7.988
8.076
8.104
8.084
7.992
8.112
8.164
8.156
8.092
8.188
8.228
8.232
8.128
8.216
8.288
8.256
8.128
8.2
8.264
8.232
8.128
8.14
8.228
8.188
8.064
7.984
8.088
8.052
8.048
7.944
8.056
8.024
8.028
7.912
8.048
8.076
8.028
7.932
8.004
8.04
7.936
7.848
7.856
8.048
8.58
9.356
10.248
10.932
10.456
9.908
9.524
9.216
8.736
8.312
8.128
8.256
8.248
8.212
8.068
8.156
8.192
8.108
8.012
8.084
8.128
8.076
7.984
8.064
8.124
8.092
8.044
8.044
8.16
8.124
8.056
8.016
8.136
8.12
8.1
8.004
8.108
8.152
8.108
8.02
8.12
8.176
8.124
8.052
8.132
8.2
8.144
8.088
8.136
8.24
8.18
8.136
8.132
8.22
8.216
8.208
8.14
8.296
8.296
8.264
8.204
8.332
8.344
8.304
8.228
8.396
8.452
8.416
8.348
8.456
8.536
8.508
8.48
8.54
8.636
8.62
8.6
8.604
8.708
8.724
8.676
8.62
8.72
8.668
8.604
8.472
8.56
8.544
8.452
8.288
8.376
8.376
8.296
8.176
8.22
8.24
8.188
8.08
8.116
8.176
8.124
8.084
8.056
8.168
8.124
8.088
8.008
8.152
8.124
8.08
7.976
8.128
8.148
8.096
7.992
8.108
8.124
8.112
8.02
8.1
8.16
8.108
8.036
8.076
8.132
8.112
8.048
8.032
8.148
8.136
8.096
8
8.14
8.096
8.088
8.004
8.128
8.112
8.048
7.96
8.072
8.136
8.072
8
8.076
8.144
8.084
8.012
8.016
8.12
8.08
8.032
8
8.112
8.064
8.048
7.972
8.104
8.072
8.044
7.956
8.092
8.088
8.056
7.948
8.044
8.104
8.06
7.992
8.056
8.084
8.076
8
8.032
8.112
8.076
8.032
8.004
8.12
8.068
8.052
7.984
8.132
8.112
8.024
7.988
8.096
8.092
8.084
7.968
8.088
8.1
8.052
7.992
8.072
8.128
8.076
8.008
8.032
8.132
8.084
8.04
8.012
8.12
8.1
8.064
7.976
8.116
8.096
8.064
7.98
8.12
8.116
8.044
7.964
8.12
8.12
8.072
7.988
8.048
8.14
8.084
8.02
8.036
8.124
8.08
8.072
8.012
8.128
8.08
8.088
8
8.144
8.108
8.08
8
8.16
8.192
8.152
8.072
8.176
8.268
8.224
8.168
8.232
8.312
8.26
8.224
8.196
8.3
8.22
8.2
8.16
8.28
8.192
8.108
7.992
8.128
8.124
8.028
7.976
8.104
8.104
8.052
7.976
8.06
8.096
8.044
8
8.036
8.076
8
7.924
7.892
7.98
8.368
9.04
9.9
10.816
10.588
9.996
9.592
9.372
8.896
8.46
8.192
8.264
8.268
8.224
8.096
8.18
8.176
8.092
8.028
8.092
8.168
8.108
8.064
8.052
8.152
8.088
8.072
8.016
8.156
8.092
8.084
8.016
8.144
8.124
8.096
7.996
8.14
8.156
8.108
8.028
8.156
8.18
8.116
8.072
8.104
8.204
8.156
8.14
8.128
8.22
8.164
8.156
8.136
8.256
8.244
8.188
8.136
8.288
8.296
8.236
8.192
8.328
8.348
8.336
8.256
8.372
8.428
8.388
8.384
8.44
8.54
8.5
8.512
8.548
8.664
8.64
8.608
8.604
8.744
8.724
8.704
8.64
8.788
8.704
8.66
8.544
8.64
8.612
8.508
8.408
8.456
8.432
8.348
8.244
8.252
8.316
8.2
8.176
8.144
8.248
8.172
8.16
8.072
8.2
8.136
8.14
8.072
8.2
8.172
8.116
8.08
8.168
8.172
8.112
8.06
8.132
8.164
8.152
8.112
8.12
8.176
8.152
8.116
8.116
8.192
8.14
8.108
8.068
8.196
8.148
8.104
8.036
8.176
8.16
8.084
8.032
8.14
8.152
8.112
8.076
8.136
8.18
8.112
8.068
8.104
8.172
8.112
8.092
8.088
8.18
8.132
8.092
8.032
8.172
8.128
8.076
8.016
8.152
8.128
8.096
8.04
8.116
8.144
8.088
8.072
8.12
8.156
8.08
8.076
8.076
8.144
8.1
8.084
8.068
8.176
8.112
8.092
8.048
8.128
8.124
8.096
8.056
8.164
8.136
8.092
8.04
8.144
8.148
8.084
8.056
8.136
8.168
8.104
8.08
8.08
8.156
8.128
8.108
8.08
8.184
8.132
8.108
8.068
8.192
8.144
8.084
8.052
8.176
8.156
8.108
8.056
8.164
8.172
8.104
8.044
8.128
8.184
8.136
8.128
8.088
8.192
8.132
8.116
8.092
8.224
8.128
8.124
8.064
8.192
8.16
8.1
8.072
8.2
8.208
8.176
8.164
8.26
8.3
8.24
8.252
8.296
8.36
8.324
8.304
8.308
8.376
8.292
8.26
8.256
8.368
8.328
8.256
8.164
8.2
8.152
8.116
8.076
8.176
8.148
8.12
8.064
8.148
8.152
8.124
8.052
8.108
8.16
8.128
8.076
8.016
8.08
8
8.028
8.448
9.292
10.104
10.816
10.492
10.084
9.756
9.352
8.852
8.56
8.372
8.284
8.264
8.316
8.312
8.22
8.176
8.172
8.212
8.148
8.144
8.128
8.212
8.16
8.144
8.112
8.232
8.176
8.14
8.104
8.224
8.192
8.14
8.088
8.212
8.212
8.156
8.148
8.228
8.188
8.168
8.148
8.212
8.252
8.192
8.164
8.18
8.292
8.224
8.192
8.18
8.276
8.252
8.224
8.2
8.356
8.288
8.26
8.24
8.364
8.368
8.32
8.328
8.408
8.432
8.392
8.384
8.444
8.54
8.484
8.528
8.544
8.648
8.608
8.636
8.6
8.744
8.704
8.724
8.684
8.844
8.768
8.732
8.668
8.76
8.692
8.596
8.524
8.576
8.548
8.436
8.372
8.344
8.36
8.276
8.236
8.188
8.276
8.224
8.168
8.156
8.236
8.16
8.12
8.076
8.228
8.208
8.132
8.072
8.176
8.16
8.124
8.116
8.184
8.2
8.12
8.12
8.136
8.204
8.144
8.14
8.132
8.228
8.152
8.104
8.072
8.192
8.124
8.12
8.072
8.232
8.18
8.124
8.084
8.184
8.148
8.104
8.088
8.128
8.192
8.14
8.12
8.156
8.212
8.124
8.108
8.064
8.16
8.132
8.116
8.072
8.22
8.172
8.112
8.048
8.164
8.124
8.112
8.056
8.16
8.156
8.096
8.096
8.16
8.168
8.092
8.068
8.064
8.168
8.136
8.08
8.056
8.188
8.124
8.104
8.076
8.204
8.16
8.092
8.052
8.188
8.168
8.112
8.064
8.144
8.148
8.104
8.104
8.16
8.168
8.132
8.124
8.124
8.188
8.092
8.124
8.1
8.224
8.132
8.12
8.04
8.164
8.128
8.08
8.036
8.188
8.144
8.128
8.08
8.136
8.108
8.108
8.088
8.136
8.148
8.072
8.088
8.068
8.18
8.116
8.108
8.052
8.152
8.112
8.144
8.096
8.228
8.188
8.172
8.172
8.308
8.284
8.264
8.268
8.348
8.34
8.288
8.264
8.324
8.352
8.276
8.272
8.224
8.188
8.104
8.088
8.072
8.168
8.108
8.08
8.04
8.168
8.128
8.08
8.008
8.152
8.076
8.024
8.012
8.072
8.02
7.968
7.92
8.056
8.664
9.424
10.328
10.944
10.64
10.024
9.712
9.264
8.948
8.488
8.264
8.208
8.412
8.34
8.272
8.116
8.18
8.16
8.152
8.132
8.184
8.168
8.1
8.12
8.124
8.172
8.112
8.144
8.128
8.2
8.152
8.128
8.108
8.22
8.16
8.144
8.1
8.216
8.176
8.148
8.136
8.228
8.204
8.188
8.188
8.252
8.26
8.204
8.204
8.248
8.296
8.256
8.248
8.248
8.34
8.296
8.308
8.268
8.42
8.328
8.352
8.312
8.46
8.428
8.42
8.408
8.54
8.548
8.52
8.528
8.612
8.664
8.644
8.688
8.712
8.796
8.78
8.796
8.772
8.896
8.816
8.84
8.776
8.852
8.748
8.7
8.612
8.688
8.58
8.508
8.42
8.468
8.408
8.348
8.328
8.316
8.304
8.236
8.232
8.224
8.264
8.204
8.216
8.184
8.26
8.196
8.172
8.148
8.276
8.196
8.184
8.14
8.26
8.204
8.196
8.168
8.252
8.208
8.18
8.184
8.216
8.24
8.168
8.204
8.188
8.264
8.18
8.208
8.16
8.256
8.196
8.2
8.128
8.252
8.2
8.184
8.16
8.252
8.192
8.18
8.152
8.252
8.212
8.168
8.164
8.208
8.228
8.184
8.2
8.184
8.228
8.172
8.216
8.168
8.268
8.204
8.196
8.152
8.28
8.204
8.176
8.164
8.272
8.208
8.184
8.188
8.232
8.228
8.18
8.164
8.22
8.232
8.164
8.188
8.196
8.24
8.192
8.192
8.16
8.256
8.2
8.176
8.144
8.26
8.204
8.172
8.128
8.24
8.188
8.188
8.184
8.224
8.192
8.16
8.176
8.216
8.22
8.168
8.196
8.168
8.248
8.184
8.188
8.14
8.232
8.172
8.2
8.14
8.24
8.192
8.188
8.156
8.232
8.2
8.152
8.168
8.236
8.216
8.16
8.16
8.204
8.24
8.2
8.224
8.244
8.304
8.288
8.296
8.292
8.416
8.38
8.348
8.332
8.42
8.392
8.348
8.344
8.396
8.344
8.332
8.276
8.284
8.24
8.18
8.204
8.184
8.204
8.16
8.196
8.132
8.188
8.148
8.172
8.136
8.22
8.156
8.14
8.048
8.12
8.024
8.004
8.504
9.44
10.444
11.272
11.04
10.412
9.88
9.352
8.928
8.556
8.468
8.388
8.376
8.34
8.404
8.28
8.26
8.188
8.28
8.212
8.216
8.18
8.272
8.212
8.188
8.184
8.264
8.22
8.196
8.228
8.26
8.248
8.18
8.232
8.244
8.284
8.216
8.248
8.228
8.284
8.252
8.268
8.22
8.308
8.264
8.28
8.26
8.356
8.292
8.264
8.288
8.356
8.344
8.304
8.336
8.396
8.384
8.364
8.4
8.404
8.448
8.4
8.452
8.44
8.524
8.484
8.516
8.524
8.64
8.604
8.62
8.64
8.732
8.72
8.724
8.748
8.848
8.844
8.832
8.868
8.9
8.904
8.856
8.892
8.824
8.828
8.736
8.712
8.616
8.644
8.512
8.524
8.428
8.492
8.384
8.364
8.296
8.372
8.296
8.256
8.26
8.276
8.22
8.232
8.268
8.28
8.244
8.208
8.276
8.256
8.288
8.212
8.228
8.192
8.292
8.236
8.212
8.2
8.268
8.204
8.216
8.204
8.26
8.24
8.204
8.232
8.256
8.248
8.212
8.232
8.244
8.264
8.22
8.224
8.224
8.264
8.188
8.236
8.204
8.26
8.192
8.2
8.16
8.24
8.192
8.184
8.168
8.268
8.188
8.188
8.184
8.22
8.228
8.172
8.228
8.212
8.22
8.168
8.224
8.16
8.224
8.184
8.22
8.176
8.248
8.164
8.172
8.144
8.256
8.164
8.192
8.176
8.228
8.204
8.172
8.24
8.24
8.22
8.176
8.196
8.204
8.212
8.168
8.188
8.164
8.224
8.152
8.164
8.132
8.196
8.14
8.188
8.12
8.188
8.156
8.14
8.148
8.22
8.152
8.136
8.152
8.184
8.168
8.128
8.172
8.152
8.184
8.144
8.192
8.136
8.196
8.156
8.16
8.14
8.184
8.152
8.152
8.156
8.22
8.152
8.156
8.192
8.288
8.228
8.208
8.264
8.316
8.356
8.336
8.404
8.38
8.372
8.328
8.424
8.372
8.36
8.3
8.304
8.292
8.32
8.184
8.184
8.152
8.2
8.144
8.132
8.128
8.16
8.136
8.108
8.144
8.136
8.144
8.072
8.124
8.096
8.032
7.992
8.004
8.224
8.924
9.836
10.816
11.08
10.484
9.848
9.408
8.908
8.512
8.312
8.3
8.304
8.312
8.26
8.228
8.248
8.204
8.176
8.144
8.188
8.152
8.168
8.14
8.192
8.116
8.188
8.132
8.184
8.116
8.228
8.144
8.16
8.168
8.208
8.144
8.148
8.212
8.232
8.212
8.172
8.196
8.196
8.208
8.204
8.248
8.228
8.268
8.22
8.276
8.252
8.296
8.264
8.268
8.232
8.32
8.284
8.284
8.288
8.384
8.336
8.356
8.352
8.424
8.412
8.416
8.468
8.436
8.472
8.492
8.572
8.568
8.62
8.6
8.656
8.656
8.728
8.672
8.736
8.716
8.82
8.744
8.772
8.756
8.76
8.692
8.636
8.628
8.592
8.516
8.436
8.476
8.416
8.364
8.272
8.292
8.272
8.252
8.18
8.192
8.18
8.228
8.16
8.164
8.132
8.192
8.14
8.148
8.152
8.176
8.104
8.092
8.172
8.14
8.148
8.1
8.152
8.12
8.144
8.072
8.132
8.092
8.14
8.096
8.136
8.1
8.136
8.1
8.108
8.1
8.148
8.088
8.116
8.112
8.14
8.096
8.108
8.116
8.116
8.1
8.104
8.144
8.128
8.104
8.084
8.148
8.092
8.132
8.072
8.116
8.076
8.156
8.068
8.088
8.064
8.132
8.084
8.096
8.06
8.08
8.084
8.068
8.128
8.088
8.088
8.048
8.136
8.088
8.096
8.064
8.104
8.092
8.108
8.064
8.136
8.068
8.116
8.036
8.12
8.076
8.112
8.076
8.1
8.092
8.104
8.076
8.056
8.108
8.08
8.08
8.04
8.128
8.084
8.112
8.056
8.108
8.032
8.096
8.072
8.116
8.052
8.092
8.052
8.1
8.06
8.116
8.044
8.044
8.072
8.088
8.06
8.052
8.104
8.08
8.108
8.044
8.148
8.096
8.192
8.128
8.244
8.192
8.26
8.22
8.304
8.26
8.348
8.284
8.324
8.3
8.328
8.272
8.244
8.276
8.252
8.16
8.108
8.144
8.112
8.084
8.036
8.116
8.072
8.076
8.032
8.08
8.052
8.092
8.012
8.076
8.028
8.04
7.944
7.996
7.944
8.36
9.032
9.952
10.872
10.796
10.06
9.596
9.26
8.76
8.336
8.184
8.296
8.276
8.288
8.176
8.188
8.116
8.124
8.08
8.128
8.06
8.144
8.072
8.112
8.092
8.12
8.08
8.1
8.12
8.112
8.104
8.088
8.164
8.1
8.124
8.108
8.144
8.088
8.136
8.12
8.2
8.116
8.18
8.112
8.164
8.128
8.192
8.144
8.16
8.172
8.216
8.204
8.204
8.232
8.212
8.192
8.2
8.288
8.244
8.228
8.26
8.316
8.284
8.344
8.304
8.364
8.356
8.396
8.38
8.448
8.456
8.548
8.528
8.556
8.532
8.612
8.596
8.652
8.72
8.692
8.652
8.668
8.764
8.676
8.648
8.56
8.588
8.488
8.488
8.408
8.412
8.3
8.304
8.232
8.26
8.212
8.212
8.156
8.164
8.172
8.164
8.092
8.092
8.164
8.136
8.112
8.072
8.172
8.08
8.124
8.084
8.144
8.096
8.12
8.064
8.132
8.072
8.072
8.036
8.112
8.124
8.152
8.052
8.08
8.108
8.156
8.076
8.1
8.14
8.076
8.084
8.072
8.16
8.068
8.112
8.084
8.152
8.056
8.076
8.08
8.14
8.08
8.104
8.056
8.088
8.096
8.104
8.068
8.064
8.108
8.092
8.088
8.124
8.148
8.096
8.044
8.064
8.132
8.104
8.06
8.056
8.14
8.12
8.128
8.024
8.108
8.008
8.128
8.06
8.088
8.084
8.1
8.024
8.06
8.104
8.096
8.048
8.052
8.144
8.084
8.1
8.052
8.14
8.068
8.088
8.072
8.136
8.056
8.056
8.036
8.084
8.052
8.052
8.036
8.092
8.072
8.068
8.028
8.084
8.112
8.084
8.032
8.028
8.116
8.068
8.064
8.052
8.116
8.036
8.072
8.036
8.144
8.06
8.088
8.08
8.144
8.14
8.18
8.156
8.228
8.216
8.268
8.264
8.288
8.32
8.304
8.284
8.292
8.352
8.276
8.24
8.24
8.304
8.14
8.104
8.092
8.128
8.08
8.104
8.056
8.12
8.064
8.076
8.052
8.068
8.104
8.088
8.06
8.064
8.084
7.988
7.952
7.924
8.448
9.152
10.02
10.796
10.848
10.128
9.76
9.432
9.004
8.532
8.24
8.168
8.252
8.26
8.292
8.196
8.204
8.184
8.144
8.116
8.148
8.172
8.144
8.144
8.124
8.22
8.112
8.144
8.144
8.216
8.14
8.156
8.144
8.224
8.168
8.184
8.132
8.188
8.168
8.192
8.168
8.204
8.228
8.22
8.2
8.208
8.26
8.192
8.212
8.256
8.3
8.208
8.248
8.26
8.352
8.264
8.308
8.288
8.364
8.348
8.388
8.344
8.384
8.38
8.436
8.44
8.476
8.536
8.496
8.508
8.564
8.628
8.608
8.636
8.68
8.776
8.728
8.728
8.752
8.848
8.78
8.804
8.764
8.8
8.712
8.76
8.652
8.664
8.584
8.52
8.428
8.436
8.424
8.372
8.28
8.292
8.316
8.24
8.188
8.188
8.292
8.196
8.212
8.192
8.24
8.14
8.176
8.148
8.216
8.152
8.184
8.128
8.2
8.204
8.188
8.14
8.176
8.196
8.172
8.128
8.156
8.216
8.152
8.148
8.16
8.244
8.124
8.168
8.16
8.204
8.124
8.16
8.136
8.192
8.132
8.168
8.132
8.196
8.184
8.16
8.14
8.172
8.204
8.176
8.152
8.176
8.248
8.152
8.12
8.144
8.208
8.136
8.132
8.132
8.2
8.148
8.16
8.156
8.208
8.148
8.156
8.116
8.188
8.152
8.164
8.116
8.18
8.228
8.164
8.132
8.164
8.236
8.172
8.14
8.132
8.228
8.132
8.132
8.124
8.208
8.112
8.144
8.124
8.204
8.152
8.152
8.1
8.152
8.176
8.14
8.112
8.156
8.196
8.132
8.124
8.14
8.236
8.16
8.144
8.16
8.22
8.132
8.148
8.136
8.196
8.152
8.124
8.128
8.204
8.164
8.188
8.136
8.248
8.228
8.264
8.24
8.308
8.344
8.348
8.332
8.368
8.428
8.348
8.352
8.36
8.436
8.312
8.3
8.3
8.328
8.164
8.192
8.152
8.22
8.16
8.152
8.108
8.164
8.14
8.12
8.1
8.128
8.184
8.12
8.108
8.096
8.116
8.02
7.956
8.14
8.856
9.72
10.72
11.164
10.564
9.86
9.484
8.98
8.608
8.304
8.284
8.252
8.352
8.312
8.252
8.216
8.22
8.256
8.196
8.164
8.172
8.248
8.152
8.172
8.192
8.268
8.124
8.156
8.16
8.208
8.14
8.164
8.168
8.24
8.2
8.204
8.18
8.212
8.236
8.208
8.16
8.24
8.3
8.216
8.204
8.248
8.316
8.208
8.224
8.248
8.332
8.248
8.268
8.244
8.328
8.28
8.332
8.284
8.352
8.34
8.312
8.336
8.396
8.436
8.392
8.404
8.504
8.532
8.472
8.496
8.556
8.672
8.588
8.608
8.636
8.712
8.668
8.704
8.72
8.772
8.724
8.74
8.692
8.732
8.652
8.604
8.54
8.588
8.536
8.392
8.356
8.352
8.388
8.276
8.22
8.188
8.244
8.132
8.136
8.148
8.228
8.128
8.136
8.108
8.192
8.124
8.1
8.1
8.164
8.16
8.12
8.072
8.116
8.18
8.14
8.112
8.104
8.188
8.112
8.116
8.14
8.212
8.084
8.104
8.1
8.196
8.096
8.156
8.12
8.172
8.108
8.12
8.088
8.168
8.112
8.096
8.084
8.112
8.172
8.088
8.084
8.112
8.192
8.044
8.096
8.088
8.208
8.06
8.104
8.088
8.16
8.068
8.088
8.084
8.152
8.076
8.056
8.044
8.136
8.124
8.088
8.02
8.092
8.124
8.06
8.08
8.084
8.136
8.056
8.092
8.076
8.2
8.076
8.084
8.04
8.132
8.028
8.072
8.072
8.144
8.092
8.088
8.06
8.104
8.096
8.088
8.056
8.144
8.188
8.072
8.052
8.088
8.156
8.016
8.06
8.092
8.192
8.064
8.076
8.06
8.16
8.052
8.072
8.056
8.152
8.104
8.1
8.096
8.16
8.18
8.144
8.156
8.204
8.292
8.24
8.276
8.336
8.412
8.316
8.3
8.324
8.364
8.228
8.22
8.2
8.252
8.088
8.112
8.08
8.14
8.112
8.084
8.08
8.112
8.116
8.064
8.012
8.072
8.1
8.012
8.044
8.016
8.056
7.952
7.856
8.128
8.892
9.624
10.448
10.828
10.356
9.8
9.568
9.124
8.72
8.292
8.152
8.14
8.256
8.272
8.212
8.164
8.164
8.212
8.096
8.104
8.144
8.172
8.092
8.112
8.132
8.228
8.104
8.116
8.116
8.228
8.112
8.124
8.132
8.192
8.18
8.156
8.148
8.188
8.22
8.152
8.152
8.216
8.272
8.188
8.184
8.208
8.276
8.188
8.22
8.26
8.348
8.244
8.228
8.228
8.296
8.268
8.3
8.316
8.372
8.356
8.34
8.336
8.424
8.456
8.384
8.412
8.46
8.564
8.488
8.512
8.596
8.68
8.58
8.592
8.664
8.756
8.696
8.688
8.736
8.816
8.724
8.688
8.7
8.744
8.664
8.588
8.532
8.54
8.508
8.388
8.36
8.38
8.396
8.264
8.208
8.248
8.3
8.192
8.184
8.196
8.248
8.116
8.144
8.14
8.248
8.148
8.132
8.12
8.216
8.164
8.14
8.148
8.176
8.22
8.136
8.136
8.188
8.212
8.084
8.1
8.168
8.24
8.116
8.124
8.16
8.22
8.12
8.116
8.12
8.188
8.112
8.088
8.072
8.156
8.124
8.088
8.076
8.152
8.156
8.068
8.068
8.12
8.184
8.052
8.056
8.056
8.156
8.056
8.076
8.104
8.152
8.048
8.068
8.068
8.12
8.108
8.084
8.076
8.156
8.124
8.056
8.076
8.128
8.148
8.064
8.044
8.092
8.164
8.08
8.056
8.104
8.152
8.048
8.056
8.092
8.156
8.04
8.088
8.084
8.128
8.056
8.072
8.036
8.132
8.14
8.088
8.084
8.136
8.132
8.084
8.096
8.12
8.2
8.056
8.092
8.124
8.168
8.048
8.088
8.12
8.152
8.088
8.08
8.076
8.148
8.12
8.08
8.08
8.136
8.112
8.084
8.072
8.128
8.156
8.032
8.096
8.18
8.252
8.168
8.196
8.216
8.36
8.232
8.26
8.284
8.332
8.264
8.268
8.32
8.364
8.268
8.244
8.24
8.22
8.148
8.076
8.096
8.144
8.192
8.036
8.06
8.108
8.164
8.028
8.036
8.052
8.152
8.028
8.04
8.04
8.052
7.94
7.932
8.364
9.196
10.056
10.864
10.82
10.196
9.768
9.352
8.872
8.484
8.292
8.18
8.212
8.28
8.328
8.16
8.136
8.188
8.212
8.124
8.116
8.144
8.204
8.092
8.12
8.128
8.18
8.148
8.132
8.152
8.216
8.196
8.12
8.132
8.216
8.228
8.124
8.132
8.22
8.264
8.124
8.152
8.22
8.28
8.16
8.192
8.216
8.284
8.216
8.224
8.232
8.324
8.252
8.224
8.288
8.36
8.368
8.268
8.316
8.4
8.448
8.304
8.38
8.444
8.508
8.376
8.432
8.5
8.588
8.476
8.56
8.612
8.68
8.604
8.62
8.672
8.784
8.76
8.724
8.792
8.84
8.816
8.688
8.724
8.76
8.76
8.568
8.54
8.54
8.552
8.336
8.368
8.384
8.4
8.224
8.236
8.244
8.268
8.164
8.16
8.192
8.22
8.188
8.096
8.156
8.192
8.216
8.064
8.144
8.172
8.228
8.056
8.144
8.188
8.224
8.064
8.12
8.164
8.236
8.084
8.072
8.164
8.212
8.132
8.096
8.164
8.192
8.144
8.06
8.148
8.168
8.196
8.02
8.136
8.164
8.22
8.056
8.132
8.12
8.192
8.056
8.08
8.112
8.172
8.052
8.084
8.14
8.188
8.12
8.06
8.116
8.176
8.152
8.012
8.104
8.168
8.176
8.024
8.088
8.144
8.188
8.056
8.076
8.104
8.168
8.032
8.08
8.136
8.168
8.068
8.056
8.088
8.148
8.132
8.012
8.088
8.164
8.16
8.048
8.108
8.16
8.156
8.044
8.096
8.14
8.152
8.044
8.084
8.16
8.2
8.068
8.052
8.092
8.18
8.084
8.052
8.112
8.176
8.136
8.048
8.104
8.144
8.128
8.024
8.108
8.164
8.192
8.052
8.116
8.132
8.188
8.06
8.064
8.132
8.192
8.084
8.084
8.112
8.172
8.076
8.08
8.132
8.188
8.176
8.132
8.208
8.288
8.292
8.212
8.268
8.332
8.352
8.232
8.3
8.332
8.392
8.216
8.244
8.284
8.308
8.092
8.052
8.176
8.212
8.108
8.004
8.112
8.184
8.116
7.992
8.052
8.172
8.168
8
8.076
8.116
8.1
7.916
7.94
8.044
8.576
9.168
10.14
11.02
10.848
10.016
9.608
9.304
8.908
8.36
8.14
8.248
8.332
8.308
8.16
8.216
8.272
8.216
8.056
8.14
8.208
8.236
8.036
8.096
8.212
8.228
8.056
8.084
8.196
8.248
8.116
8.068
8.168
8.256
8.144
8.088
8.176
8.236
8.212
8.052
8.184
8.24
8.256
8.084
8.172
8.284
8.32
8.12
8.18
8.264
8.328
8.152
8.184
8.296
8.336
8.216
8.24
8.332
8.38
8.308
8.236
8.344
8.448
8.44
8.328
8.416
8.504
8.536
8.356
8.488
8.596
8.64
8.508
8.588
8.672
8.736
8.584
8.624
8.776
8.796
8.68
8.668
8.76
8.804
8.648
8.54
8.6
8.624
8.552
8.352
8.412
8.452
8.424
8.188
8.228
8.292
8.276
8.084
8.144
8.208
8.228
8.06
8.072
8.18
8.22
8.084
8.048
8.12
8.196
8.104
8.024
8.14
8.176
8.156
7.988
8.084
8.164
8.172
7.972
8.092
8.168
8.188
7.988
8.04
8.136
8.168
8.02
8.016
8.128
8.156
8.012
8.008
8.092
8.14
8.024
7.944
8.08
8.14
8.096
7.94
8.04
8.088
8.124
7.92
8
8.1
8.128
7.924
8.008
8.092
8.1
7.948
7.964
8.088
8.108
8.012
7.948
8.088
8.108
8.044
7.932
8.06
8.124
8.092
7.92
8.032
8.092
8.096
7.904
8.012
8.1
8.116
7.944
8.012
8.088
8.116
7.976
7.968
8.108
8.108
8.004
7.952
8.06
8.088
8.064
7.952
8.048
8.104
8.092
7.932
8.036
8.12
8.108
7.924
8.048
8.116
8.112
7.924
7.992
8.092
8.116
7.984
7.984
8.092
8.112
8.024
7.964
8.092
8.12
8.036
7.932
8.108
8.116
8.092
7.932
8.044
8.152
8.108
7.916
8.024
8.108
8.132
7.988
8.084
8.192
8.248
8.132
8.132
8.268
8.296
8.204
8.132
8.284
8.36
8.28
8.12
8.188
8.284
8.232
8.048
8.068
8.136
8.116
7.94
7.996
8.096
8.1
7.924
7.972
8.088
8.096
7.952
7.944
8.06
8.104
7.972
7.844
8.004
7.94
8.108
8.568
9.504
10.416
10.812
10.112
9.724
9.508
9.024
8.424
8.204
8.216
8.232
8.084
8.136
8.184
8.184
8.02
8
8.108
8.128
8.064
7.988
8.092
8.132
8.112
7.948
8.112
8.144
8.14
7.952
8.084
8.176
8.164
7.972
8.052
8.144
8.152
8
8.052
8.144
8.164
8.044
8.064
8.156
8.196
8.12
8.016
8.188
8.224
8.144
8.06
8.184
8.272
8.228
8.08
8.172
8.276
8.284
8.128
8.232
8.352
8.312
8.196
8.24
8.388
8.444
8.308
8.316
8.448
8.524
8.448
8.372
8.548
8.636
8.592
8.468
8.612
8.672
8.688
8.532
8.668
8.716
8.696
8.456
8.536
8.596
8.54
8.344
8.34
8.408
8.388
8.24
8.168
8.236
8.224
8.136
8.024
8.116
8.128
8.104
7.944
8.084
8.124
8.108
7.92
8.02
8.14
8.132
7.936
8.032
8.096
8.112
7.976
7.988
8.104
8.136
7.992
7.94
8.08
8.1
8.004
7.9
8.08
8.132
8.072
7.896
8.024
8.112
8.104
7.924
8.016
8.068
8.06
7.892
7.996
8.096
8.076
7.928
7.956
8.056
8.092
7.944
7.896
8.036
8.068
8.004
7.9
8.012
8.1
8.048
7.876
7.992
8.072
8.032
7.872
7.98
8.084
8.072
7.884
7.96
8.036
8.044
7.888
7.944
8.06
8.092
7.98
7.928
8.028
8.06
8
7.9
8.048
8.06
8.024
7.852
7.996
8.032
8.024
7.856
7.98
8.08
8.024
7.892
7.976
8.068
8.036
7.916
7.924
8.064
8.068
7.964
7.888
8.012
8.04
7.996
7.856
8.016
8.056
8.04
7.888
7.992
8.064
8.024
7.856
7.968
8.088
8.068
7.896
7.972
8.068
8.048
7.9
7.936
8.072
8.08
7.92
7.884
8.016
8.076
7.968
7.892
8.028
8.092
8.056
7.908
8.02
8.16
8.108
7.972
8.092
8.208
8.196
8.068
8.164
8.244
8.244
8.144
8.148
8.272
8.3
8.136
8.08
8.212
8.24
8.08
7.92
8.04
8.088
8.048
7.852
7.996
8.056
8.028
7.876
7.956
8.044
8.036
7.844
7.936
8.036
7.984
7.828
7.8
7.904
8.42
9.092
9.884
10.776
10.676
9.976
9.492
9.312
8.904
8.432
8.004
8.096
8.204
8.192
8.004
8.1
8.172
8.136
7.94
8.008
8.1
8.092
7.968
7.984
8.088
8.132
8.016
7.964
8.096
8.14
8.088
7.92
8.072
8.176
8.116
7.944
8.064
8.156
8.112
7.956
8.064
8.164
8.132
7.984
8.044
8.188
8.188
8.056
8.06
8.192
8.204
8.112
8.044
8.176
8.224
8.232
8.092
8.236
8.284
8.272
8.092
8.26
8.356
8.328
8.188
8.292
8.432
8.388
8.3
8.38
8.5
8.516
8.428
8.428
8.584
8.624
8.576
8.512
8.648
8.724
8.668
8.516
8.668
8.712
8.62
8.412
8.52
8.556
8.476
8.256
8.312
8.356
8.312
8.108
8.14
8.232
8.192
8.064
8.008
8.164
8.16
8.064
7.964
8.116
8.14
8.076
7.904
8.064
8.14
8.084
7.912
8.044
8.112
8.092
7.932
7.992
8.12
8.116
7.952
8.016
8.128
8.116
8.004
7.956
8.096
8.112
8.036
7.916
8.072
8.116
8.076
7.92
8.06
8.128
8.032
7.896
8.036
8.104
8.072
7.912
7.964
8.12
8.072
7.908
7.948
8.088
8.072
7.968
7.916
8.056
8.104
8.012
7.892
8.028
8.08
8.044
7.888
8.008
8.1
8.044
7.876
7.98
8.096
8.072
7.908
7.948
8.072
8.08
7.936
7.936
8.072
8.084
7.976
7.928
8.044
8.064
7.988
7.864
8.044
8.108
8.056
7.872
8.016
8.092
8.044
7.884
7.984
8.068
8.044
7.892
7.968
8.096
8.064
7.92
7.936
8.068
8.088
7.972
7.916
8.032
8.1
8.028
7.872
7.992
8.084
8.028
7.856
8.008
8.076
8.044
7.868
7.988
8.08
8.056
7.864
7.956
8.092
8.064
7.928
7.92
8.056
8.084
7.968
7.904
8.056
8.084
8.024
7.868
8.028
8.08
8.028
7.868
8.028
8.1
8.056
7.896
8.048
8.156
8.156
8.02
8.08
8.244
8.268
8.152
8.128
8.264
8.276
8.216
8.132
8.244
8.236
8.176
8.02
8.108
8.116
8.028
7.888
8.032
8.1
8.036
7.848
7.972
8.056
8.036
7.896
7.932
8.064
8.044
7.92
7.86
7.96
7.984
7.848
7.928
8.676
9.576
10.396
10.74
10.316
9.88
9.476
8.884
8.528
8.3
8.16
8.04
8.136
8.224
8.156
8.012
8.036
8.108
8.104
7.976
7.98
8.124
8.12
8.032
7.944
8.084
8.112
8.064
7.924
8.08
8.12
8.084
7.916
8.08
8.148
8.068
7.912
8.044
8.148
8.12
7.968
8.016
8.148
8.152
8.04
8.02
8.136
8.16
8.116
8.016
8.188
8.172
8.152
8.032
8.196
8.236
8.192
8.072
8.188
8.292
8.256
8.136
8.22
8.348
8.344
8.208
8.268
8.404
8.424
8.356
8.336
8.508
8.532
8.476
8.408
8.572
8.628
8.592
8.492
8.6
8.692
8.644
8.512
8.568
8.596
8.54
8.36
8.376
8.448
8.36
8.208
8.2
8.276
8.208
8.096
8.036
8.152
8.148
8.064
7.932
8.068
8.104
8.048
7.9
8.016
8.084
8.056
7.88
7.984
8.06
8.024
7.908
7.976
8.088
8.02
7.948
7.96
8.08
8.068
7.972
7.924
8.064
8.072
8.004
7.916
8.036
8.06
8.02
7.9
8.024
8.06
8.024
7.904
7.996
8.056
8.036
7.892
7.94
8.064
8.024
7.904
7.9
8.044
8.052
7.956
7.884
8.052
8.036
7.972
7.888
8.02
8.072
8.008
7.868
8
8.064
8.02
7.864
7.968
8.044
7.992
7.88
7.944
8.056
7.996
7.912
7.92
8.06
8.024
7.948
7.884
8.056
8.064
8.004
7.872
8.028
8.048
8.028
7.868
8.004
8.056
7.992
7.864
7.98
8.064
8.008
7.912
7.944
8.056
8.036
7.936
7.916
8.072
8.024
7.968
7.908
8.028
8.056
8
7.896
8.032
8.04
8.036
7.876
8.024
8.064
7.996
7.852
7.976
8.084
8.004
7.884
7.968
8.06
8.024
7.952
7.92
8.044
8.056
7.996
7.9
8.04
8.036
8.004
7.884
8.02
8.06
8.004
7.844
8
8.076
8.008
7.896
7.976
8.128
8.104
8.016
8.056
8.192
8.188
8.144
8.144
8.244
8.216
8.192
8.088
8.268
8.244
8.152
7.996
8.196
8.18
8.052
7.892
8.032
8.064
7.992
7.88
7.976
8.068
8
7.896
7.952
8.056
8.012
7.92
7.856
8.044
7.996
7.88
7.792
7.876
8.168
8.764
9.444
10.468
10.812
10.18
9.564
9.396
8.992
8.516
8.1
8.104
8.236
8.188
8.056
8.048
8.164
8.124
8.012
7.952
8.124
8.08
8.04
7.908
8.052
8.092
8.016
7.928
8.068
8.1
8.056
7.932
8.052
8.144
8.072
7.936
8.02
8.156
8.096
8.012
8.048
8.14
8.136
8.016
7.976
8.164
8.128
8.108
8
8.144
8.172
8.128
8.008
8.152
8.24
8.196
8.052
8.192
8.28
8.224
8.14
8.216
8.324
8.284
8.224
8.232
8.404
8.368
8.348
8.3
8.464
8.472
8.472
8.396
8.536
8.576
8.572
8.46
8.604
8.68
8.656
8.528
8.608
8.692
8.6
8.448
8.492
8.54
8.432
8.276
8.228
8.324
8.28
8.176
8.084
8.184
8.152
8.088
7.944
8.088
8.112
8.072
7.928
8.032
8.092
8.028
7.908
8.012
8.104
8.032
7.912
7.984
8.096
8.056
7.936
7.92
8.088
8.056
8
7.94
8.056
8.072
8
7.892
8.044
8.088
7.992
7.88
8.036
8.096
8.012
7.928
8.02
8.084
8.048
7.928
7.972
8.084
8.02
7.924
7.944
8.076
8.028
7.952
7.888
8.068
8.06
7.988
7.896
8.036
8.056
8.02
7.9
8.02
8.06
7.992
7.876
8
8.06
8.012
7.884
7.976
8.076
8.032
7.94
7.924
8.092
8.036
7.996
7.904
8.08
7.956
8.028
7.892
8.056
8.072
8.016
7.912
8.012
8.052
8.032
7.9
7.996
8.108
8.032
7.924
7.968
8.072
8.04
7.976
7.928
8.084
8.06
7.988
7.932
8.092
8.072
8.028
7.924
8.076
8.076
8.024
7.916
8.048
8.1
8.056
7.92
8.028
8.096
8.048
7.928
7.976
8.116
8.056
7.976
7.96
8.104
8.076
8.02
7.92
8.076
8.084
8.032
7.908
8.072
8.116
8.064
7.9
8.036
8.108
8.096
8.012
8.096
8.208
8.152
8.096
8.16
8.304
8.256
8.212
8.156
8.324
8.284
8.244
8.18
8.228
8.256
8.204
8.076
8.06
8.076
8.06
7.968
8.004
8.06
8.04
7.98
7.996
8.06
8.036
7.988
7.952
8.036
8.04
7.988
7.896
7.952
7.936
7.88
8.26
9.096
9.984
10.756
10.684
10.12
9.728
9.328
8.804
8.424
8.276
8.188
8.152
8.152
8.224
8.156
8.108
8.032
8.152
8.116
8.08
8.04
8.132
8.104
8.064
8.028
8.096
8.104
8.084
8.028
8.112
8.168
8.104
8.036
8.076
8.132
8.092
8.072
8.092
8.176
8.136
8.092
8.076
8.18
8.144
8.112
8.084
8.2
8.192
8.144
8.092
8.208
8.216
8.188
8.124
8.232
8.276
8.24
8.204
8.28
8.324
8.276
8.244
8.272
8.392
8.34
8.348
8.384
8.484
8.464
8.464
8.428
8.568
8.556
8.568
8.532
8.648
8.636
8.668
8.628
8.72
8.712
8.636
8.584
8.636
8.648
8.564
8.48
8.436
8.472
8.388
8.316
8.252
8.3
8.224
8.184
8.116
8.192
8.148
8.096
8.064
8.152
8.112
8.072
8.032
8.1
8.128
8.056
8.028
8.084
8.1
8.064
8.044
8.064
8.132
8.068
8.056
8.048
8.124
8.072
8.052
8.032
8.112
8.072
8.032
7.988
8.1
8.104
8.056
8.016
8.052
8.092
8.032
8.016
8.06
8.084
8.032
7.996
8.024
8.1
8.048
8.044
8.016
8.1
8.056
8.02
8.008
8.048
8.044
8.008
7.996
8.04
8.052
7.996
7.988
8.036
8.048
7.992
7.976
8.028
8.056
8.004
7.996
8.008
8.064
8.024
8.004
7.976
8.084
8.044
8.016
8.02
8.08
8.056
7.992
7.972
8.06
8.056
8.004
7.984
8.06
8.056
8.02
8.004
8.032
8.08
8.012
8.008
7.992
8.084
8.024
8.024
8.016
8.1
8.048
8.016
7.984
8.08
8.036
8
7.964
8.064
8.06
8.032
8.004
8.06
8.068
8.024
8.004
8.044
8.076
8.036
8.012
8.028
8.104
8.028
8.032
8.012
8.104
8.048
8.04
7.992
8.088
8.056
8.048
7.996
8.084
8.052
8.036
8.032
8.084
8.088
8.012
8.008
8.06
8.1
8.052
8.064
8.096
8.172
8.172
8.172
8.14
8.272
8.248
8.224
8.236
8.316
8.284
8.22
8.228
8.28
8.232
8.196
8.148
8.128
8.112
8.032
8.028
8.06
8.056
8.044
8.04
8.004
8.068
8
8.016
7.98
8.072
8.008
8.02
7.96
8.012
7.96
7.844
8.016
8.656
9.52
10.372
10.848
10.336
9.84
9.472
9.012
8.604
8.288
8.196
8.196
8.192
8.224
8.164
8.108
8.048
8.168
8.112
8.052
8.072
8.128
8.088
8.048
8.076
8.124
8.104
8.084
8.052
8.116
8.14
8.072
8.064
8.088
8.16
8.08
8.072
8.096
8.172
8.112
8.092
8.116
8.152
8.14
8.128
8.116
8.188
8.176
8.14
8.148
8.196
8.22
8.176
8.156
8.24
8.244
8.212
8.208
8.26
8.316
8.252
8.268
8.296
8.36
8.336
8.364
8.372
8.452
8.432
8.404
8.424
8.548
8.536
8.5
8.524
8.608
8.644
8.624
8.628
8.68
8.712
8.652
8.636
8.652
8.644
8.548
8.524
8.48
8.504
8.396
8.352
8.28
8.308
8.256
8.192
8.16
8.196
8.18
8.076
8.088
8.128
8.112
8.044
8.072
8.116
8.112
8.06
8.048
8.088
8.104
8.072
8.052
8.08
8.128
8.068
8.024
8.044
8.104
8.072
8.056
8.056
8.128
8.072
8.012
8.048
8.104
8.104
8.036
8.048
8.08
8.112
8.052
8.048
8.048
8.112
8.08
8.06
8.052
8.1
8.044
8.024
8.036
8.08
8.04
8.04
8.052
8.104
8.08
7.996
8.028
8.08
8.06
8.04
8.048
8.056
8.06
8
8.028
8.04
8.06
8.012
8.012
8.016
8.088
8.032
8.02
8.028
8.08
8.016
8.012
8.016
8.064
8.068
8.004
8.012
8.04
8.04
7.996
8.02
8.072
8.06
8.012
8.032
8.036
8.064
8.04
8.024
8.032
8.084
8.032
8.02
8.008
8.088
8.04
8.008
7.996
8.084
8.056
8.008
8.028
8.072
8.072
8.016
8.028
8.096
8.092
8.028
8.036
8.044
8.092
8.036
8.048
8.004
8.096
8.036
8.028
8.028
8.092
8.04
8.012
8.036
8.096
8.052
8
8
8.076
8.072
7.996
8.036
8.076
8.076
8.012
8.036
8.06
8.064
7.992
8.032
8.068
8.144
8.108
8.1
8.148
8.224
8.208
8.196
8.216
8.256
8.264
8.228
8.22
8.276
8.276
8.192
8.184
8.192
8.18
8.076
8.048
8.06
8.088
8.056
8.032
8.02
8.08
8.04
8.024
8.024
8.08
8.016
8
8.02
8.068
8.028
7.908
7.904
7.924
8.088
8.652
9.492
10.4
10.848
10.24
9.768
9.452
9.044
8.6
8.248
8.168
8.188
8.204
8.176
8.152
8.144
8.112
8.044
8.048
8.096
8.068
8.028
8.044
8.1
8.096
8.032
8.056
8.056
8.096
8.056
8.044
8.072
8.064
8.056
8.052
8.08
8.096
8.072
8.064
8.076
8.128
8.096
8.048
8.064
8.144
8.132
8.08
8.076
8.156
8.152
8.128
8.112
8.172
8.196
8.136
8.16
8.208
8.244
8.204
8.212
8.2
8.316
8.252
8.232
8.256
8.352
8.328
8.328
8.328
8.444
8.428
8.428
8.444
8.512
8.524
8.52
8.516
8.592
8.652
8.608
8.604
8.608
8.648
8.592
8.52
8.488
8.512
8.42
8.368
8.32
8.34
8.276
8.192
8.144
8.196
8.172
8.08
8.056
8.112
8.12
8.048
8.024
8.084
8.088
8.032
8.004
8.016
8.072
8.024
8.032
7.992
8.076
8.028
8.02
8.008
8.08
8.048
8.004
7.98
8.072
8.068
8.02
8.012
8.072
8.056
8.024
7.992
8.032
8.064
8.008
8.04
8.028
8.1
8.02
8
7.984
8.068
8.024
7.984
7.968
8.052
8.02
8.004
7.96
8.076
8.032
7.98
7.968
8.048
8.052
7.98
7.988
8.024
8.036
7.988
7.996
7.98
8.02
7.976
7.96
7.944
8.032
8
7.968
7.96
8.056
8.004
7.952
7.952
8.06
7.996
7.94
7.936
8.04
8.032
7.98
7.98
7.992
8.04
7.968
7.988
7.984
8.044
7.988
7.98
7.968
8.036
7.988
7.968
7.944
8.036
7.98
7.948
7.964
8.036
7.996
7.936
7.948
8.008
8.036
7.952
7.984
8.016
8.028
7.984
7.98
8.004
8.04
7.96
7.976
7.984
8.02
7.976
7.932
7.948
8.036
7.984
7.936
7.952
7.996
7.968
7.94
7.948
8.004
8.02
7.948
7.964
8.004
8.052
7.956
7.948
7.96
8.04
8.028
8
8.016
8.12
8.088
8.076
8.116
8.212
8.192
8.124
8.112
8.216
8.22
8.148
8.132
8.184
8.18
8.1
8.04
7.992
8.028
7.984
7.936
7.928
8.016
7.956
7.928
7.94
8.016
7.936
7.904
7.88
7.988
7.956
7.904
7.836
7.908
7.86
7.812
8.264
9.036
9.896
10.624
10.508
9.944
9.616
9.224
8.772
8.38
8.144
8.088
8.076
8.092
8.176
8.068
8.004
7.988
8.06
8.04
7.96
7.992
8.064
8.032
7.952
7.988
8.068
8.004
7.98
7.984
8.044
8.052
8.016
7.996
8.032
8.052
8.016
8
7.996
8.056
8.02
8.024
8.008
8.084
8.044
8.02
8.06
8.132
8.088
8.064
8.068
8.128
8.14
8.092
8.112
8.14
8.18
8.14
8.172
8.188
8.232
8.212
8.212
8.272
8.3
8.28
8.26
8.312
8.368
8.376
8.364
8.404
8.476
8.488
8.468
8.504
8.56
8.6
8.572
8.572
8.624
8.628
8.604
8.568
8.592
8.58
8.476
8.408
8.396
8.412
8.276
8.224
8.184
8.228
8.168
8.096
8.072
8.112
8.092
8.02
8.044
8.044
8.056
7.984
8.044
8.06
8.076
8.024
8.016
8.048
8.076
8
7.984
8.016
8.068
8.016
7.984
8.036
8.052
8.008
7.984
8.02
8.068
8.04
7.98
8.02
8.104
8.076
8.028
8.028
8.044
8.04
8
8.004
8.04
8.048
7.992
8.004
8.036
8.084
8.016
7.96
7.992
8.072
8.044
7.996
8.02
8.084
8.056
8.004
8.012
8.044
8.008
7.992
8.012
8.028
8.036
7.996
8.016
8.036
8.092
7.976
7.984
8.06
8.1
8.008
7.972
8.016
8.084
8.02
8.008
8.052
8.072
8.036
8.004
8.052
8.092
8.024
7.96
8.036
8.04
8.08
8.02
8.016
8.064
8.044
8.024
8.008
8.044
8.1
8.028
8
8.032
8.068
8.028
8.016
8.076
8.116
8.036
8
8.02
8.052
8.076
8.028
8.052
8.08
8.084
8.028
8.004
8.048
8.048
8.004
8.04
8.068
8.104
8.048
7.988
8.08
8.088
8.064
8.012
8.064
8.068
8.076
8.04
8.092
8.128
8.112
8.092
8.152
8.204
8.204
8.22
8.212
8.308
8.276
8.252
8.22
8.272
8.308
8.228
8.196
8.26
8.248
8.1
8.048
8.092
8.124
8.056
8.032
8.068
8.108
8.076
7.996
8.008
8.04
8.052
8
8.012
8.076
8.06
7.952
7.92
7.928
8.132
8.724
9.564
10.504
11.02
10.42
9.848
9.56
9.152
8.696
8.268
8.2
8.252
8.244
8.192
8.16
8.164
8.132
8.104
8.136
8.128
8.124
8.072
8.08
8.112
8.144
8.104
8.064
8.108
8.144
8.1
8.064
8.132
8.156
8.16
8.108
8.14
8.168
8.164
8.048
8.116
8.16
8.18
8.096
8.112
8.168
8.2
8.148
8.132
8.18
8.236
8.2
8.152
8.212
8.268
8.256
8.22
8.268
8.3
8.324
8.26
8.304
8.368
8.36
8.376
8.364
8.416
8.48
8.44
8.468
8.516
8.556
8.548
8.536
8.592
8.644
8.644
8.664
8.696
8.76
8.712
8.696
8.748
8.76
8.708
8.636
8.62
8.608
8.552
8.464
8.4
8.34
8.388
8.296
8.268
8.228
8.248
8.172
8.156
8.156
8.204
8.16
8.088
8.12
8.176
8.12
8.092
8.124
8.14
8.168
8.116
8.116
8.116
8.124
8.064
8.1
8.096
8.152
8.056
8.128
8.128
8.176
8.124
8.056
8.116
8.16
8.132
8.084
8.136
8.164
8.12
8.088
8.1
8.148
8.124
8.068
8.116
8.104
8.104
8.092
8.096
8.088
8.132
8.072
8.04
8.076
8.136
8.076
8.052
8.052
8.124
8.076
8.068
8.108
8.12
8.116
8.036
8.1
8.116
8.1
8.032
8.092
8.096
8.108
8.084
8.084
8.06
8.116
8.072
8.048
8.056
8.112
8.088
8.068
8.092
8.12
8.092
8.032
8.092
8.1
8.08
8.032
8.084
8.108
8.108
8.04
8.096
8.084
8.1
8.056
8.072
8.056
8.108
8.064
8.048
8.068
8.136
8.072
8.044
8.056
8.1
8.084
8.044
8.084
8.108
8.092
8.048
8.072
8.088
8.116
8.044
8.088
8.08
8.108
8.076
8.08
8.076
8.108
8.056
8.056
8.064
8.128
8.1
8.048
8.08
8.112
8.08
8.04
8.088
8.096
8.1
8.096
8.164
8.188
8.2
8.176
8.204
8.232
8.324
8.264
8.252
8.24
8.316
8.272
8.252
8.236
8.296
8.188
8.16
8.1
8.128
8.104
8.036
8.088
8.1
8.072
8.036
8.076
8.072
8.08
8.032
8.032
8.036
8.096
8.032
8
7.96
8.008
7.912
8.196
8.92
9.896
10.728
10.888
10.316
9.856
9.468
8.952
8.576
8.308
8.288
8.216
8.268
8.22
8.216
8.124
8.132
8.112
8.164
8.096
8.092
8.092
8.152
8.096
8.076
8.092
8.156
8.116
8.116
8.128
8.144
8.116
8.088
8.144
8.124
8.108
8.052
8.172
8.172
8.12
8.076
8.12
8.172
8.176
8.116
8.112
8.212
8.188
8.168
8.148
8.22
8.192
8.196
8.184
8.3
8.236
8.212
8.192
8.312
8.316
8.292
8.272
8.336
8.36
8.368
8.34
8.396
8.48
8.472
8.456
8.492
8.568
8.556
8.552
8.588
8.708
8.696
8.66
8.648
8.788
8.768
8.716
8.684
8.756
8.656
8.596
8.516
8.524
8.472
8.408
8.32
8.324
8.332
8.264
8.176
8.18
8.212
8.184
8.12
8.084
8.196
8.144
8.112
8.052
8.144
8.136
8.092
8.008
8.152
8.1
8.048
8.032
8.132
8.128
8.084
8.04
8.088
8.136
8.088
8.024
8.088
8.136
8.092
8.068
8.076
8.168
8.116
8.064
8.076
8.156
8.14
8.08
8.056
8.164
8.164
8.092
8.02
8.112
8.132
8.088
8.028
8.084
8.144
8.08
8.04
8.056
8.136
8.1
8.028
8.032
8.148
8.096
8.036
7.992
8.132
8.08
8.06
8.004
8.116
8.084
8.052
8.016
8.06
8.092
8.044
8.004
8.04
8.116
8.056
8.016
8.056
8.12
8.092
8.036
8.044
8.136
8.072
8.032
8.012
8.12
8.052
8.032
7.996
8.1
8.08
8.032
8.004
8.088
8.132
8.068
7.984
8.036
8.124
8.052
8
8.028
8.124
8.064
8.02
8.032
8.132
8.06
8.032
8.024
8.136
8.112
8.024
8.024
8.108
8.132
8.032
8.032
8.076
8.112
8.056
8.032
8.064
8.116
8.06
8.016
8.06
8.14
8.072
8.012
8.068
8.132
8.124
8.092
8.116
8.216
8.212
8.2
8.168
8.272
8.292
8.288
8.252
8.312
8.356
8.292
8.216
8.268
8.308
8.244
8.14
8.128
8.18
8.112
8.04
8.056
8.144
8.092
8.012
8.004
8.112
8.084
8.044
8.004
8.112
8.088
8.032
7.976
8
8.008
7.936
7.944
8.524
9.388
10.248
10.832
10.44
9.98
9.564
9.128
8.732
8.428
8.272
8.24
8.216
8.292
8.212
8.152
8.092
8.14
8.12
8.104
8.052
8.096
8.12
8.12
8.068
8.104
8.132
8.112
8.044
8.084
8.112
8.124
8.1
8.068
8.148
8.12
8.096
8.048
8.168
8.128
8.104
8.064
8.152
8.136
8.148
8.1
8.168
8.156
8.168
8.116
8.176
8.212
8.244
8.176
8.184
8.244
8.252
8.216
8.212
8.288
8.296
8.276
8.272
8.352
8.304
8.392
8.376
8.456
8.408
8.456
8.436
8.508
8.5
8.564
8.552
8.592
8.64
8.676
8.648
8.676
8.728
8.68
8.688
8.664
8.696
8.58
8.596
8.5
8.544
8.4
8.4
8.32
8.352
8.244
8.232
8.192
8.204
8.16
8.204
8.14
8.136
8.148
8.1
8.068
8.084
8.176
8.104
8.06
8.076
8.18
8.12
8.048
8.064
8.144
8.132
8.068
8.044
8.124
8.136
8.072
8.052
8.124
8.144
8.092
8.056
8.088
8.148
8.1
8.036
8.076
8.192
8.124
8.048
8.056
8.16
8.112
8.08
8.04
8.144
8.104
8.076
8.04
8.112
8.12
8.068
8.024
8.072
8.116
8.052
8.016
8.064
8.14
8.108
7.992
8.04
8.132
8.084
8.044
8.036
8.152
8.088
8.028
8.048
8.152
8.132
8.06
8.008
8.116
8.128
8.08
8.012
8.084
8.148
8.108
8.048
8.064
8.132
8.088
8.04
8.064
8.152
8.088
8.024
8.052
8.18
8.128
8.052
8.032
8.128
8.112
8.06
8.036
8.12
8.116
8.08
8.02
8.092
8.148
8.084
8.06
8.088
8.168
8.108
8.016
8.076
8.172
8.12
8.056
8.048
8.152
8.148
8.096
8.076
8.12
8.136
8.088
8.04
8.148
8.152
8.088
8.02
8.092
8.16
8.096
8.016
8.08
8.172
8.132
8.064
8.132
8.232
8.216
8.2
8.184
8.304
8.296
8.244
8.24
8.34
8.316
8.284
8.26
8.304
8.304
8.232
8.168
8.204
8.232
8.136
8.064
8.104
8.156
8.088
8.032
8.072
8.132
8.08
8.02
8.052
8.136
8.096
8.04
8.008
8.052
8.024
7.952
7.888
8.328
9.068
9.88
10.624
10.584
10.056
9.652
9.288
8.896
8.588
8.332
8.22
8.252
8.324
8.268
8.152
8.116
8.18
8.184
8.096
8.072
8.164
8.164
8.116
8.088
8.144
8.168
8.124
8.064
8.12
8.208
8.144
8.088
8.128
8.228
8.172
8.072
8.144
8.204
8.172
8.116
8.112
8.228
8.192
8.168
8.148
8.236
8.224
8.164
8.156
8.228
8.276
8.208
8.172
8.228
8.32
8.268
8.196
8.236
8.352
8.336
8.256
8.3
8.388
8.376
8.364
8.376
8.48
8.5
8.44
8.464
8.54
8.584
8.572
8.528
8.64
8.72
8.696
8.652
8.728
8.788
8.748
8.696
8.708
8.784
8.656
8.568
8.572
8.632
8.504
8.408
8.352
8.408
8.396
8.284
8.22
8.28
8.292
8.196
8.152
8.204
8.248
8.16
8.096
8.18
8.24
8.164
8.084
8.128
8.248
8.176
8.076
8.112
8.224
8.18
8.116
8.108
8.18
8.196
8.136
8.108
8.192
8.216
8.096
8.088
8.156
8.224
8.116
8.084
8.148
8.224
8.152
8.096
8.108
8.224
8.156
8.108
8.124
8.208
8.156
8.076
8.104
8.192
8.176
8.092
8.076
8.164
8.204
8.128
8.072
8.136
8.196
8.104
8.084
8.144
8.2
8.132
8.076
8.112
8.208
8.14
8.064
8.12
8.208
8.156
8.092
8.084
8.196
8.148
8.1
8.076
8.144
8.2
8.116
8.096
8.144
8.196
8.112
8.084
8.132
8.204
8.112
8.064
8.108
8.2
8.152
8.06
8.088
8.168
8.124
8.092
8.088
8.18
8.172
8.088
8.104
8.132
8.18
8.1
8.076
8.12
8.2
8.12
8.084
8.128
8.204
8.136
8.06
8.104
8.2
8.068
8.056
8.116
8.26
8.1
8.044
8.108
8.264
8.14
8.068
8.1
8.232
8.16
8.076
8.08
8.18
8.172
8.104
8.1
8.2
8.284
8.172
8.18
8.28
8.412
8.26
8.264
8.304
8.452
8.308
8.28
8.328
8.472
8.324
8.22
8.22
8.332
8.22
8.104
8.088
8.212
8.192
8.06
8.076
8.192
8.208
8.06
8.036
8.104
8.252
8.08
8.056
8.116
8.196
7.996
7.968
7.944
8.356
8.844
9.6
10.44
10.824
10.176
9.672
9.428
9.136
8.724
8.316
8.244
8.356
8.372
8.252
8.172
8.236
8.272
8.096
8.084
8.136
8.276
8.124
8.052
8.12
8.26
8.14
8.084
8.14
8.228
8.16
8.076
8.112
8.224
8.196
8.088
8.12
8.204
8.22
8.112
8.12
8.172
8.284
8.108
8.096
8.168
8.304
8.148
8.144
8.188
8.28
8.2
8.18
8.196
8.292
8.232
8.204
8.244
8.316
8.344
8.22
8.272
8.372
8.44
8.328
8.32
8.436
8.528
8.388
8.404
8.492
8.608
8.512
8.528
8.584
8.688
8.636
8.624
8.688
8.792
8.736
8.696
8.704
8.76
8.744
8.588
8.58
8.6
8.644
8.436
8.392
8.408
8.468
8.264
8.244
8.256
8.316
8.18
8.164
8.196
8.276
8.172
8.124
8.128
8.208
8.172
8.112
8.112
8.18
8.208
8.104
8.104
8.14
8.2
8.064
8.072
8.156
8.236
8.084
8.076
8.116
8.24
8.124
8.076
8.112
8.212
8.144
8.1
8.124
8.188
8.172
8.1
8.116
8.188
8.188
8.072
8.072
8.164
8.208
8.076
8.068
8.116
8.236
8.092
8.072
8.12
8.196
8.088
8.08
8.096
8.192
8.128
8.084
8.076
8.188
8.132
8.06
8.088
8.144
8.208
8.076
8.06
8.128
8.232
8.084
8.052
8.12
8.216
8.068
8.084
8.1
8.192
8.064
8.064
8.112
8.208
8.12
8.04
8.104
8.2
8.184
8.072
8.088
8.152
8.216
8.076
8.092
8.152
8.216
8.084
8.096
8.168
8.232
8.076
8.1
8.168
8.236
8.12
8.104
8.112
8.188
8.148
8.088
8.112
8.196
8.164
8.104
8.124
8.188
8.196
8.072
8.092
8.192
8.216
8.084
8.1
8.176
8.228
8.1
8.084
8.16
8.224
8.136
8.096
8.124
8.2
8.168
8.124
8.168
8.284
8.28
8.236
8.252
8.38
8.388
8.292
8.28
8.368
8.436
8.3
8.276
8.32
8.396
8.272
8.232
8.208
8.236
8.12
8.1
8.152
8.192
8.14
8.072
8.08
8.18
8.184
8.036
8.08
8.14
8.196
8.068
8.036
8.06
8.1
7.892
8.208
8.92
9.836
10.556
10.772
10.256
9.936
9.528
9.048
8.672
8.444
8.336
8.276
8.276
8.332
8.284
8.144
8.164
8.2
8.232
8.104
8.096
8.2
8.248
8.108
8.096
8.176
8.244
8.112
8.104
8.176
8.256
8.164
8.112
8.176
8.252
8.188
8.124
8.18
8.256
8.232
8.128
8.156
8.236
8.3
8.156
8.152
8.212
8.296
8.156
8.16
8.24
8.324
8.228
8.212
8.276
8.356
8.248
8.224
8.28
8.388
8.356
8.276
8.292
8.464
8.476
8.364
8.396
8.508
8.576
8.472
8.476
8.596
8.704
8.568
8.604
8.692
8.78
8.68
8.676
8.74
8.848
8.748
8.68
8.7
8.764
8.676
8.536
8.516
8.58
8.536
8.376
8.336
8.4
8.42
8.232
8.22
8.28
8.332
8.156
8.128
8.168
8.268
8.144
8.104
8.136
8.26
8.188
8.092
8.152
8.244
8.152
8.124
8.124
8.208
8.216
8.088
8.116
8.22
8.252
8.1
8.1
8.208
8.244
8.136
8.084
8.168
8.224
8.132
8.088
8.148
8.232
8.128
8.076
8.132
8.224
8.168
8.076
8.096
8.204
8.212
8.08
8.092
8.18
8.256
8.092
8.072
8.172
8.244
8.096
8.1
8.16
8.212
8.128
8.08
8.144
8.22
8.132
8.088
8.12
8.196
8.18
8.076
8.084
8.172
8.2
8.08
8.112
8.164
8.2
8.06
8.076
8.164
8.224
8.072
8.08
8.128
8.236
8.128
8.06
8.1
8.204
8.116
8.048
8.112
8.204
8.172
8.076
8.088
8.212
8.22
8.096
8.092
8.184
8.244
8.08
8.064
8.18
8.244
8.12
8.08
8.14
8.236
8.144
8.116
8.132
8.236
8.172
8.096
8.132
8.232
8.196
8.092
8.092
8.232
8.212
8.104
8.128
8.212
8.268
8.112
8.072
8.192
8.24
8.12
8.096
8.148
8.26
8.14
8.092
8.14
8.272
8.18
8.076
8.112
8.244
8.26
8.128
8.172
8.32
8.372
8.224
8.268
8.352
8.44
8.28
8.28
8.38
8.476
8.32
8.236
8.316
8.392
8.244
8.12
8.148
8.224
8.18
8.108
8.104
8.204
8.18
8.08
8.08
8.188
8.204
8.072
8.084
8.144
8.232
8.032
7.968
8.056
8.076
8.188
8.808
9.676
10.664
10.784
10.18
9.78
9.612
9.088
8.588
8.352
8.396
8.392
8.224
8.236
8.292
8.332
8.096
8.128
8.2
8.292
8.12
8.116
8.16
8.26
8.12
8.112
8.168
8.256
8.148
8.096
8.144
8.264
8.208
8.104
8.16
8.228
8.264
8.128
8.12
8.252
8.276
8.148
8.164
8.24
8.312
8.124
8.132
8.22
8.328
8.18
8.168
8.244
8.36
8.272
8.192
8.252
8.392
8.336
8.228
8.268
8.388
8.396
8.292
8.332
8.432
8.5
8.364
8.42
8.544
8.612
8.476
8.512
8.616
8.736
8.608
8.624
8.692
8.824
8.748
8.708
8.748
8.84
8.772
8.66
8.7
8.732
8.7
8.492
8.492
8.576
8.56
8.324
8.32
8.356
8.416
8.236
8.212
8.248
8.32
8.188
8.136
8.22
8.272
8.172
8.108
8.168
8.252
8.192
8.108
8.128
8.236
8.252
8.076
8.144
8.216
8.264
8.092
8.092
8.188
8.248
8.12
8.104
8.192
8.26
8.128
8.076
8.184
8.268
8.152
8.08
8.152
8.268
8.208
8.124
8.132
8.248
8.24
8.088
8.12
8.224
8.256
8.064
8.112
8.216
8.244
8.112
8.1
8.192
8.224
8.148
8.096
8.152
8.244
8.156
8.056
8.128
8.196
8.168
8.068
8.104
8.204
8.204
8.04
8.088
8.192
8.212
8.052
8.092
8.172
8.244
8.092
8.092
8.152
8.216
8.096
8.096
8.148
8.228
8.14
8.06
8.124
8.24
8.164
8.048
8.132
8.2
8.212
8.068
8.096
8.188
8.224
8.072
8.104
8.16
8.24
8.096
8.096
8.172
8.248
8.116
8.08
8.144
8.244
8.128
8.064
8.112
8.212
8.18
8.12
8.144
8.192
8.2
8.112
8.14
8.16
8.22
8.072
8.124
8.164
8.196
8.068
8.1
8.164
8.192
8.092
8.108
8.132
8.188
8.128
8.096
8.128
8.168
8.168
8.116
8.16
8.24
8.268
8.18
8.22
8.3
8.364
8.26
8.304
8.356
8.404
8.284
8.292
8.292
8.348
8.236
8.244
8.272
8.264
8.156
8.092
8.14
8.184
8.176
8.064
8.112
8.16
8.192
8.044
8.076
8.116
8.164
8.044
8.088
8.14
8.116
7.944
7.984
7.972
8.384
8.92
9.788
10.668
10.728
10.084
9.664
9.412
9.016
8.604
8.264
8.296
8.324
8.344
8.184
8.224
8.22
8.232
8.096
8.148
8.192
8.22
8.088
8.116
8.168
8.22
8.116
8.124
8.156
8.228
8.144
8.104
8.164
8.204
8.192
8.096
8.144
8.196
8.212
8.092
8.152
8.212
8.24
8.092
8.156
8.208
8.252
8.144
8.168
8.224
8.256
8.184
8.18
8.248
8.304
8.26
8.2
8.284
8.328
8.332
8.212
8.312
8.356
8.424
8.276
8.372
8.44
8.492
8.376
8.468
8.54
8.604
8.468
8.556
8.628
8.684
8.612
8.632
8.72
8.784
8.748
8.696
8.724
8.776
8.728
8.584
8.624
8.62
8.576
8.376
8.424
8.412
8.424
8.248
8.272
8.284
8.288
8.16
8.152
8.196
8.244
8.112
8.108
8.116
8.18
8.14
8.104
8.12
8.18
8.156
8.064
8.12
8.144
8.164
8.056
8.108
8.168
8.184
8.052
8.1
8.176
8.192
8.056
8.108
8.164
8.188
8.076
8.072
8.144
8.188
8.128
8.076
8.128
8.196
8.172
8.048
8.12
8.196
8.204
8.056
8.112
8.16
8.196
8.016
8.1
8.128
8.16
8.044
8.084
8.112
8.164
8.068
8.064
8.116
8.172
8.132
8.048
8.084
8.152
8.14
8
8.084
8.14
8.148
8.016
8.104
8.14
8.148
8.004
8.1
8.164
8.164
8.02
8.092
8.124
8.16
8.084
8.04
8.116
8.148
8.108
8.028
8.116
8.152
8.128
8.032
8.136
8.14
8.184
8.012
8.12
8.136
8.156
8.012
8.088
8.132
8.168
8.056
8.088
8.14
8.152
8.08
8.088
8.152
8.16
8.128
8.036
8.14
8.176
8.144
7.98
8.116
8.128
8.16
7.968
8.116
8.152
8.176
8
8.108
8.128
8.14
8.032
8.092
8.16
8.136
8.064
8.06
8.176
8.22
8.192
8.12
8.232
8.272
8.284
8.168
8.312
8.364
8.348
8.192
8.308
8.3
8.332
8.132
8.252
8.3
8.284
8.084
8.096
8.148
8.18
8.06
8.024
8.1
8.148
8.1
7.968
8.08
8.148
8.12
7.948
8.096
8.124
8.116
7.86
8.008
8
8.092
8.384
9.292
10.192
10.88
10.368
9.86
9.656
9.34
8.808
8.388
8.308
8.296
8.288
8.188
8.28
8.272
8.216
8.016
8.192
8.18
8.18
7.984
8.132
8.196
8.2
8.04
8.136
8.204
8.204
8.064
8.1
8.188
8.204
8.14
8.096
8.208
8.212
8.188
8.092
8.2
8.256
8.236
8.036
8.196
8.248
8.244
8.064
8.208
8.268
8.284
8.104
8.24
8.316
8.3
8.196
8.236
8.316
8.364
8.288
8.24
8.368
8.4
8.4
8.296
8.416
8.46
8.472
8.34
8.516
8.58
8.58
8.416
8.592
8.644
8.672
8.52
8.648
8.776
8.792
8.692
8.712
8.8
8.788
8.708
8.612
8.684
8.676
8.604
8.428
8.496
8.488
8.412
8.2
8.316
8.36
8.308
8.088
8.212
8.252
8.252
8.068
8.152
8.204
8.188
8.124
8.128
8.204
8.212
8.132
8.076
8.18
8.244
8.192
8.064
8.204
8.22
8.2
8.008
8.18
8.208
8.204
8.048
8.156
8.208
8.204
8.06
8.156
8.212
8.2
8.108
8.1
8.196
8.228
8.172
8.076
8.18
8.204
8.16
8.048
8.176
8.192
8.192
7.996
8.152
8.168
8.148
8
8.116
8.192
8.176
8.02
8.1
8.156
8.196
8.088
8.06
8.148
8.188
8.148
8.048
8.14
8.176
8.128
8.032
8.148
8.176
8.172
7.988
8.128
8.18
8.16
8.02
8.096
8.148
8.192
8.028
8.108
8.16
8.188
8.088
8.104
8.144
8.16
8.104
8.024
8.176
8.196
8.144
8.012
8.152
8.216
8.18
7.988
8.124
8.188
8.164
8.032
8.132
8.172
8.16
8.04
8.092
8.176
8.18
8.076
8.08
8.188
8.184
8.144
8.06
8.152
8.184
8.196
8.048
8.152
8.196
8.184
8.024
8.148
8.196
8.18
8.016
8.116
8.204
8.188
8.12
8.192
8.268
8.28
8.24
8.256
8.344
8.384
8.328
8.24
8.356
8.4
8.344
8.2
8.312
8.368
8.3
8.092
8.156
8.172
8.188
8.02
8.116
8.184
8.18
8.028
8.088
8.164
8.164
8.096
8.056
8.14
8.172
8.12
7.936
8.06
8.068
8.072
8.492
9.4
10.336
10.984
10.424
10.048
9.772
9.388
8.796
8.452
8.348
8.332
8.232
8.276
8.328
8.32
8.188
8.12
8.236
8.248
8.18
8.056
8.2
8.232
8.208
8.032
8.184
8.22
8.22
8.064
8.2
8.244
8.224
8.08
8.156
8.264
8.256
8.16
8.172
8.276
8.304
8.2
8.128
8.256
8.268
8.26
8.128
8.268
8.34
8.284
8.132
8.3
8.352
8.32
8.152
8.316
8.4
8.376
8.26
8.348
8.412
8.464
8.34
8.348
8.488
8.524
8.484
8.408
8.552
8.624
8.568
8.476
8.676
8.716
8.688
8.532
8.728
8.796
8.796
8.624
8.788
8.844
8.8
8.648
8.692
8.72
8.68
8.548
8.46
8.556
8.504
8.4
8.28
8.376
8.368
8.288
8.108
8.268
8.272
8.236
8.036
8.2
8.236
8.184
8.024
8.156
8.24
8.184
8.064
8.14
8.224
8.192
8.1
8.068
8.196
8.232
8.156
8.048
8.192
8.224
8.164
8.008
8.192
8.224
8.156
7.976
8.164
8.22
8.16
7.996
8.148
8.204
8.164
8.048
8.108
8.172
8.188
8.084
8.032
8.18
8.168
8.128
8.02
8.172
8.184
8.144
7.964
8.164
8.18
8.136
7.944
8.136
8.2
8.16
7.96
8.104
8.188
8.164
8.028
8.072
8.16
8.164
8.084
8.036
8.172
8.18
8.112
7.988
8.168
8.172
8.132
7.928
8.116
8.196
8.152
7.944
8.14
8.18
8.144
7.976
8.1
8.164
8.152
8.052
8.072
8.16
8.144
8.084
8.024
8.192
8.196
8.132
7.984
8.168
8.16
8.144
7.968
8.16
8.168
8.152
7.964
8.148
8.192
8.148
7.988
8.124
8.2
8.16
8.056
8.076
8.168
8.188
8.096
8.028
8.176
8.156
8.108
7.996
8.18
8.196
8.148
7.952
8.172
8.196
8.144
7.96
8.128
8.208
8.184
8.056
8.192
8.28
8.272
8.192
8.22
8.372
8.372
8.316
8.264
8.396
8.396
8.344
8.188
8.332
8.356
8.292
8.1
8.212
8.228
8.148
7.996
8.132
8.184
8.164
8.004
8.108
8.164
8.136
8.048
8.056
8.144
8.148
8.092
7.976
8.088
8.088
7.948
8.008
8.776
9.624
10.444
10.688
10.376
9.956
9.592
8.988
8.728
8.46
8.32
8.276
8.212
8.332
8.268
8.212
8.124
8.212
8.208
8.192
8.092
8.14
8.192
8.184
8.112
8.156
8.208
8.192
8.144
8.152
8.204
8.168
8.16
8.136
8.2
8.204
8.16
8.14
8.2
8.236
8.212
8.144
8.216
8.216
8.228
8.16
8.224
8.224
8.236
8.168
8.26
8.296
8.236
8.196
8.28
8.348
8.308
8.248
8.288
8.332
8.348
8.348
8.344
8.432
8.404
8.412
8.412
8.504
8.504
8.504
8.496
8.604
8.604
8.608
8.588
8.672
8.688
8.68
8.66
8.74
8.792
8.72
8.728
8.704
8.728
8.62
8.58
8.524
8.524
8.436
8.396
8.344
8.38
8.312
8.264
8.18
8.26
8.248
8.184
8.16
8.18
8.204
8.124
8.108
8.172
8.208
8.144
8.112
8.132
8.2
8.132
8.104
8.108
8.156
8.14
8.128
8.1
8.168
8.188
8.144
8.092
8.156
8.2
8.152
8.108
8.16
8.196
8.176
8.1
8.124
8.156
8.12
8.076
8.056
8.132
8.144
8.108
8.1
8.152
8.148
8.116
8.072
8.148
8.16
8.112
8.08
8.164
8.164
8.144
8.06
8.132
8.176
8.104
8.06
8.096
8.152
8.084
8.04
8.068
8.136
8.12
8.068
8.084
8.192
8.116
8.1
8.052
8.144
8.148
8.104
8.064
8.136
8.124
8.12
8.076
8.1
8.156
8.084
8.056
8.084
8.144
8.124
8.072
8.112
8.168
8.112
8.088
8.068
8.18
8.16
8.124
8.092
8.148
8.14
8.136
8.084
8.14
8.164
8.1
8.072
8.14
8.18
8.104
8.072
8.12
8.172
8.128
8.08
8.092
8.14
8.148
8.12
8.072
8.16
8.136
8.124
8.076
8.132
8.148
8.092
7.944
8.056
8.18
8.148
7.948
8.064
8.2
8.224
8.096
8.1
8.272
8.296
8.22
8.208
8.328
8.344
8.264
8.204
8.356
8.38
8.308
8.176
8.3
8.388
8.308
8.064
8.144
8.224
8.188
8.028
8.048
8.156
8.144
8.024
8.052
8.168
8.124
8.012
7.984
8.124
8.14
8.064
7.9
8.048
8.032
8.12
8.592
9.532
10.468
11.048
10.432
10.008
9.764
9.312
8.732
8.408
8.32
8.308
8.168
8.2
8.296
8.26
8.148
8.08
8.208
8.232
8.136
8.016
8.12
8.208
8.188
8.056
8.148
8.212
8.188
8.008
8.164
8.208
8.164
8.044
8.088
8.22
8.204
8.08
8.112
8.212
8.22
8.172
8.092
8.216
8.264
8.212
8.112
8.212
8.252
8.26
8.108
8.24
8.3
8.264
8.16
8.276
8.388
8.324
8.212
8.276
8.388
8.372
8.272
8.324
8.46
8.496
8.4
8.36
8.528
8.58
8.532
8.464
8.624
8.676
8.652
8.524
8.68
8.792
8.776
8.616
8.748
8.844
8.792
8.62
8.664
8.732
8.652
8.496
8.452
8.564
8.48
8.32
8.216
8.296
8.288
8.232
8.104
8.228
8.248
8.192
8.104
8.132
8.208
8.152
8.108
8.12
8.2
8.16
8.088
8.04
8.128
8.14
8.096
8.076
8.168
8.144
8.116
8.052
8.104
8.18
8.124
8.056
8.184
8.172
8.128
8.04
8.18
8.176
8.124
8
8.144
8.136
8.124
8.048
8.108
8.168
8.14
8.068
8.084
8.152
8.12
8.072
8.028
8.188
8.152
8.096
7.996
8.176
8.16
8.116
7.992
8.08
8.16
8.1
8
8.076
8.172
8.092
8.024
8.04
8.172
8.14
8.088
8.044
8.196
8.168
8.096
8.012
8.1
8.144
8.092
8.004
8.124
8.148
8.124
7.992
8.112
8.152
8.104
8.02
8.092
8.196
8.132
8.028
8.056
8.156
8.136
8.04
8.04
8.172
8.136
8.076
8.004
8.164
8.136
8.08
8.024
8.144
8.14
8.072
7.992
8.132
8.172
8.112
7.992
8.096
8.128
8.08
8.036
8.064
8.188
8.12
8.064
8.024
8.12
8.08
8.012
8.008
8.156
8.116
8.1
8.024
8.2
8.22
8.172
8.096
8.292
8.332
8.276
8.152
8.28
8.344
8.296
8.22
8.244
8.304
8.256
8.164
8.116
8.152
8.104
8.068
8
8.116
8.076
8.04
7.968
8.1
8.064
8.04
7.948
8.072
8.08
8.052
7.964
7.968
7.984
7.924
7.916
8.452
9.332
10.232
11.016
10.768
10.232
9.752
9.32
8.756
8.424
8.216
8.212
8.124
8.288
8.208
8.168
8.068
8.164
8.172
8.084
8
8.124
8.156
8.128
8.06
8.116
8.196
8.136
8.1
8.092
8.184
8.144
8.116
8.08
8.172
8.168
8.116
8.06
8.18
8.164
8.12
8.072
8.184
8.192
8.152
8.08
8.2
8.22
8.216
8.12
8.2
8.252
8.236
8.208
8.212
8.324
8.3
8.272
8.212
8.34
8.348
8.348
8.252
8.396
8.408
8.412
8.324
8.48
8.52
8.5
8.444
8.564
8.636
8.62
8.568
8.668
8.764
8.756
8.7
8.708
8.824
8.804
8.76
8.648
8.768
8.656
8.604
8.448
8.536
8.476
8.364
8.244
8.356
8.34
8.236
8.116
8.188
8.216
8.16
8.06
8.1
8.164
8.164
8.1
8.032
8.14
8.136
8.1
8.032
8.168
8.14
8.08
8.048
8.12
8.108
8.076
8.072
8.068
8.1
8.092
8.088
8.06
8.108
8.092
8.12
8.064
8.12
8.108
8.1
8.076
8.104
8.088
8.096
8.048
8.108
8.104
8.104
8.056
8.06
8.068
8.056
8.064
8.064
8.068
8.036
8.08
8.064
8.096
8.044
8.112
8.036
8.096
8.044
8.088
8.04
8.1
8.056
8.116
8.056
8.048
8.072
8.08
8.052
8.068
8.052
8.06
8.052
8.048
8.092
8.056
8.068
8.016
8.072
8.052
8.1
8.036
8.064
8.024
8.08
8.04
8.08
8.04
8.092
8.076
8.072
8.032
8.068
8.024
8.088
8.064
8.064
8.036
8.04
8.052
8.056
8.036
8.06
8.072
8.028
8.108
8.036
8.072
8.052
8.112
8.068
8.076
8.044
8.056
8.048
8.096
8.044
8.088
8.048
8.06
8.068
8.056
8.08
8.048
8.072
8.064
8.088
8.072
8.068
8.052
8.088
8.052
8.096
8.072
8.108
8.024
8.088
8.052
8.084
8.076
8.1
8.08
8.084
8.096
8.144
8.128
8.152
8.196
8.2
8.252
8.24
8.264
8.26
8.268
8.24
8.3
8.268
8.284
8.224
8.264
8.22
8.204
8.088
8.108
8.084
8.092
8.04
8.072
8.08
8.084
8.052
8.028
8.06
8.052
8.06
8.02
8.076
8.016
8.016
7.924
7.992
7.884
8.284
8.944
9.94
10.824
11.016
10.276
9.848
9.436
8.94
8.5
8.292
8.248
8.252
8.236
8.212
8.208
8.156
8.124
8.076
8.148
8.12
8.136
8.04
8.128
8.092
8.128
8.092
8.112
8.076
8.132
8.108
8.14
8.124
8.108
8.088
8.104
8.12
8.14
8.088
8.096
8.168
8.144
8.18
8.136
8.204
8.176
8.172
8.116
8.188
8.152
8.196
8.168
8.256
8.232
8.28
8.244
8.268
8.268
8.284
8.248
8.264
8.284
8.344
8.376
8.352
8.432
8.408
8.44
8.404
8.472
8.492
8.516
8.496
8.628
8.616
8.668
8.636
8.72
8.68
8.744
8.716
8.724
8.724
8.716
8.672
8.652
8.632
8.608
8.54
8.44
8.444
8.36
8.344
8.264
8.284
8.256
8.228
8.14
8.192
8.168
8.188
8.104
8.14
8.108
8.112
8.088
8.1
8.112
8.1
8.092
8.076
8.116
8.14
8.096
8.056
8.108
8.108
8.088
8.036
8.1
8.092
8.136
8.06
8.128
8.112
8.12
8.064
8.136
8.1
8.088
8.048
8.06
8.1
8.12
8.052
8.064
8.084
8.104
8.072
8.044
8.096
8.092
8.088
